1,0.8483965,0.6209912,0.3206997,0.2040816,0.0816327,0.0408163,0.0233236,0.0233236,0.0145773,0.0233236,0.03207,0.0204082,0.03207,0.0262391,0.0291545,0.03207,0.03207,0.0233236,0.0174927,0.0145773,0.0029155,0,0.0291545,0.0349854,0.058309,0.0670554,0.1137026,0.1253644,0.1516035,0.1720117,0.1836735,0.1632653,0.1661808,0.1574344,0.1690962,0.1603499,0.1632653,0.1661808,0.1632653,0.1574344,0.1574344,0.148688,0,0,0,0,0,0,0,0,0,0,0,0,0,0,0,0,0,0,0,0,0,0,0,0,0,0,0,0,0,0,0,0,0,0,0,0,0,0,0,0,0,0,0,0,0,0,0,0,0,0,0,0,0,0,0,0,0,0,0,0,0,0,0,0,0,0,0,0,0,0,0,0,0,0,0,0,0,0,0,0,0,0,0,0,0,0,0,0,0,0,0,0,0,0,0,0,0,0,0,0,0,0,0,0,0,0,0,0,0,0,0,0,0,0,0,0,0,0,0,0,0,0,0,0,0,0,0,0,0,0,0,0,0,0,0,0,0,0,0,0,0,0,0,0,0
0.9373494,0.8939759,0.8096386,0.7783133,0.7759036,0.7590361,0.7927711,0.7614458,0.6120482,0.3638554,0.2650602,0.2048193,0.1710843,0.1445783,0.1469879,0.1253012,0.113253,0.0915663,0.086747,0.0674699,0.0722892,0.0409639,0.0409639,0.0096386,0.0120482,0,0.0144578,0.0120482,0.0337349,0.0578313,0.0939759,0.1204819,0.1710843,0.1975904,0.2361446,0.2313253,0.2650602,0.2554217,0.2674699,0.2530121,0.2626506,0.2457831,0.260241,0.2554217,0.2530121,0.2530121,0.2722892,0.2578313,0.2795181,0.2626506,0.260241,0.2626506,0.2795181,0.2674699,0.2795181,0.2698795,0.286747,0.2626506,0.2795181,0.2819277,0.2915663,0.2771084,0.2891566,0.2771084,0.286747,0.2819277,0.2939759,0.2795181,0.2650602,0.2795181,0.2819277,0.2650602,0.286747,0.2626506,0.2746988,0.2626506,0.2771084,0.2698795,0.286747,0.2626506,0.2795181,0.2746988,0.3156627,0.3204819,0.3301205,0.3204819,0.346988,0.3349397,0.339759,0.2963856,0.2819277,0.2771084,0.2795181,0.2626506,0.2722892,0.2626506,0.2819277,0.2771084,0.3301205,0.5156627,0.8168675,1,0.6337349,0.2891566,0.2530121,0.260241,0.2891566,0.2650602,0.2746988,0.2530121,0.2795181,0.2698795,0.2819277,0.2746988,0.2939759,0.2819277,0,0,0,0,0,0,0,0,0,0,0,0,0,0,0,0,0,0,0,0,0,0,0,0,0,0,0,0,0,0,0,0,0,0,0,0,0,0,0,0,0,0,0,0,0,0,0,0,0,0,0,0,0,0,0,0,0,0,0,0,0,0,0,0,0,0,0,0,0,0,0,2
0.1806452,0.0580645,0.2645161,0.4225807,0.4903226,0.5322581,0.5387097,0.5580645,0.5580645,0.5677419,0.5838709,0.5903226,0.5935484,0.5903226,0.6193548,0.6129032,0.6032258,0.6193548,0.6451613,0.6516129,0.6419355,0.6645162,0.6967742,0.7,0.716129,0.7483871,0.7903226,0.816129,0.8354838,0.8709677,0.9290323,0.9483871,0.9645161,0.9806452,1,0.9677419,0.9290323,0.8935484,0.8451613,0.7677419,0.6967742,0.6709678,0.6451613,0.6032258,0.5677419,0.5612903,0.5677419,0.5612903,0.5354839,0.5387097,0.5483871,0.5387097,0.5322581,0.5354839,0.5612903,0.5451613,0.5354839,0.5516129,0.5645161,0.5548387,0.5225806,0.5354839,0.5516129,0.5322581,0.5225806,0.5193548,0.5225806,0.5064516,0.5064516,0.5064516,0.5096774,0.4935484,0.4774193,0.4903226,0.5,0.4967742,0.4935484,0.483871,0.4870968,0.4935484,0.4870968,0.4806451,0.4870968,0.4774193,0.4741935,0.483871,0.5,0.4709677,0.4709677,0.4870968,0.4903226,0.4870968,0.4741935,0.4806451,0.4870968,0.4741935,0.4741935,0.4935484,0.483871,0.483871,0.4774193,0.4741935,0.4903226,0.483871,0.4645161,0.483871,0.5032258,0.4903226,0.483871,0.4903226,0.4903226,0.5,0.5193548,0.5451613,0.5645161,0.5677419,0.5806451,0.5935484,0.6129032,0.5709677,0.5419355,0.5290322,0.5032258,0.4806451,0.4774193,0.4774193,0.483871,0.4645161,0.4548387,0.4774193,0.483871,0.5,0.5258064,0.7032258,0.9548387,0.9258065,0.4612903,0.0419355,0,0.2,0.3419355,0.4741935,0.5225806,0.5096774,0.5,0.5290322,0.5451613,0.5419355,0.5483871,0.5580645,0.5806451,0.5645161,0.5451613,0.5741935,0.6032258,0.6,0.5903226,0.6032258,0.6290323,0.6258065,0.6419355,0.6806452,0.7064516,0.7225807,0.7451613,0.8032258,0,0,0,0,0,0,0,0,0,0,0,0,0,0,0,0,0,0,0,0,0,0
0,0.0352423,0.1740088,0.3215859,0.4537445,0.4096916,0.3061674,0.222467,0.284141,0.2775331,0.284141,0.2599119,0.2709251,0.2731278,0.2863436,0.2863436,0.3281938,0.3303965,0.3656388,0.3920705,0.4449339,0.4603524,0.5088106,0.5198238,0.5550661,0.5506608,0.5660793,0.5396476,0.5154185,0.4867841,0.4669603,0.4140969,0.3964758,0.3810573,0.3832599,0.3810573,0.4229075,0.4361233,0.3876652,0.3502203,0.5352423,0.7511013,0.9493392,1,0.938326,0.8348017,0.5572687,0.314978,0.2709251,0.2290749,0.2202643,0.2048458,0,0,0,0,0,0,0,0,0,0,0,0,0,0,0,0,0,0,0,0,0,0,0,0,0,0,0,0,0,0,0,0,0,0,0,0,0,0,0,0,0,0,0,0,0,0,0,0,0,0,0,0,0,0,0,0,0,0,0,0,0,0,0,0,0,0,0,0,0,0,0,0,0,0,0,0,0,0,0,0,0,0,0,0,0,0,0,0,0,0,0,0,0,0,0,0,0,0,0,0,0,0,0,0,0,0,0,0,0,0,0,0,0,0,0,0,0,0,0,0,0,0,0,0,0,0,0,0,0,0,0,0,0,0,0,2
1,0.7188755,0.497992,0.2168675,0.0522088,0.0321285,0.1405623,0.1807229,0.2048193,0.1967871,0.2168675,0.1967871,0.2248996,0.2048193,0.2449799,0.2329317,0.2690763,0.2570281,0.3052209,0.3092369,0.3574297,0.3654619,0.4136546,0.4297189,0.4738956,0.4779117,0.5301205,0.5341365,0.5823293,0.5702811,0.5542169,0.4738956,0.4216867,0.3413655,0.3253012,0.2851406,0.2891566,0.2650602,0.2811245,0.2530121,0.2690763,0.2530121,0.2690763,0.2570281,0.2851406,0.2570281,0.2811245,0.2610442,0.2730924,0.2449799,0.2610442,0.248996,0.2690763,0.2409639,0.248996,0.2289157,0.2449799,0.2289157,0.2570281,0.2329317,0.2369478,0.2248996,0.2530121,0.248996,0.2851406,0.2771084,0.3052209,0.3092369,0.3253012,0.2931727,0.2971888,0.2570281,0.2690763,0.2369478,0.2449799,0.2289157,0.2248996,0.2128514,0.2369478,0.1967871,0.2088353,0.1967871,0.2208835,0.2008032,0.2168675,0.2008032,0.2208835,0.2048193,0.2289157,0.2048193,0.2449799,0.2530121,0.3413655,0.4457831,0.566265,0.4779117,0.3895582,0.5502008,0.875502,0.9879518,0.7670683,0.5261044,0.2811245,0.0361446,0,0.060241,0.1686747,0.1566265,0.2008032,0.1767068,0.2008032,0.1967871,0.2128514,0.2048193,0.2369478,0.2329317,0.2610442,0.2530121,0.2971888,0.2931727,0,0,0,0,0,0,0,0,0,0,0,0,0,0,0,0,0,0,0,0,0,0,0,0,0,0,0,0,0,0,0,0,0,0,0,0,0,0,0,0,0,0,0,0,0,0,0,0,0,0,0,0,0,0,0,0,0,0,0,0,0,0,0,0,0,0,0,0
1,0.8683206,0.528626,0.3587786,0.3244275,0.2843511,0.2290076,0.2080153,0.1660305,0.129771,0.1030534,0.0858779,0.0782443,0.0744275,0.0763359,0.0706107,0.0610687,0.0648855,0.0496183,0.0515267,0.0362595,0.0458015,0.028626,0.0305344,0.0171756,0.0152672,0.009542,0.0057252,0,0.0076336,0.0152672,0.0381679,0.0419847,0.0896947,0.0973282,0.129771,0.1354962,0.1622137,0.148855,0.1526718,0.1431298,0.1507634,0.139313,0.139313,0.1431298,0.1431298,0.139313,0.1374046,0.1316794,0.148855,0.1240458,0.1431298,0.1316794,0.1374046,0.1259542,0.1335878,0.1240458,0.1412214,0.1335878,0.1431298,0.1335878,0.1431298,0.1374046,0.1412214,0.1335878,0.1450382,0.1316794,0.1412214,0.1316794,0.1335878,0.1316794,0.1431298,0.139313,0.1316794,0.1431298,0.1603053,0.1583969,0.1660305,0.1698473,0.1660305,0.1450382,0.1507634,0.1374046,0.1431298,0.1278626,0.129771,0.1240458,0.1259542,0.1259542,0.1354962,0.129771,0.1507634,0.1469466,0.1450382,0.1717557,0.3225191,0.4351145,0.6316794,0.7767175,0.9656488,0.8816794,0.4923664,0.3301527,0.3263359,0.278626,0.2385496,0.2061069,0.1717557,0.1259542,0.1030534,0.0801527,0.0858779,0.0725191,0.0763359,0.0610687,0.0687023,0.0629771,0.0572519,0.0477099,0,0,0,0,0,0,0,0,0,0,0,0,0,0,0,0,0,0,0,0,0,0,0,0,0,0,0,0,0,0,0,0,0,0,0,0,0,0,0,0,0,0,0,0,0,0,0,0,0,0,0,0,0,0,0,0,0,0,0,0,0,0,0,0,0,0,0,0,0
1,0.9495074,0.5135468,0.0406404,0.1194581,0.2204434,0.1477832,0.1231527,0.1305419,0.1280788,0.1280788,0.1293103,0.135468,0.1403941,0.1440887,0.1428571,0.1539409,0.1650246,0.1687192,0.1724138,0.1834975,0.2081281,0.2155172,0.2253695,0.2413793,0.270936,0.2807882,0.2906404,0.294335,0.3017241,0.294335,0.2795567,0.2549261,0.229064,0.1921182,0.1724138,0.158867,0.1514778,0.1453202,0.1317734,0.1317734,0.1403941,0.1342365,0.1243842,0.1342365,0.1391626,0.1342365,0.1317734,0.137931,0.1403941,0.137931,0.1280788,0.1317734,0.1391626,0.1305419,0.1206897,0.1182266,0.1268473,0.1194581,0.1169951,0.1194581,0.1243842,0.1182266,0.1059113,0.114532,0.1157635,0.1096059,0.1071429,0.1133005,0.1256158,0.1317734,0.1280788,0.1293103,0.1403941,0.1428571,0.1453202,0.1453202,0.1366995,0.1243842,0.1059113,0.0960591,0.0874384,0.0812808,0.0837438,0.0849754,0.0899015,0.0849754,0.1009852,0.2192118,0.4692118,0.7746305,0.979064,0.7844828,0.3115764,0,0.1576355,0.1231527,0.0825123,0.0775862,0.0800493,0.0837438,0.0923645,0.0923645,0.091133,0.0960591,0.1071429,0.1083744,0.1157635,0,0,0,0,0,0,0,0,0,0,0,0,0,0,0,0,0,0,0,0,0,0,0,0,0,0,0,0,0,0,0,0,0,0,0,0,0,0,0,0,0,0,0,0,0,0,0,0,0,0,0,0,0,0,0,0,0,0,0,0,0,0,0,0,0,0,0,0,0,0,0,0,0,0,0,0,0,0,0,0
1,0.7063197,0.2918216,0.1858736,0.1840149,0.1877323,0.1672862,0.169145,0.1524164,0.169145,0.1579926,0.1710037,0.1598513,0.1747212,0.1672862,0.1821561,0.1710037,0.1951673,0.1802974,0.2026022,0.2100372,0.2267658,0.2342007,0.2565056,0.2602231,0.2899628,0.2899628,0.3085502,0.2918216,0.2788104,0.2509294,0.2379182,0.1988848,0.1933085,0.1747212,0.1858736,0.1747212,0.1802974,0.169145,0.1728625,0.1635688,0.1858736,0.1728625,0.1802974,0.169145,0.1914498,0.2026022,0.2249071,0.2472119,0.2862453,0.3401487,0.4312268,0.5130112,0.6003717,0.6747212,0.767658,0.767658,0.7156134,0.6394052,0.6208178,0.5892193,0.6171004,0.5464684,0.3698885,0.1672862,0.0855019,0.0539033,0.0427509,0.0167286,0.0185874,0,0,0,0,0,0,0,0,0,0,0,0,0,0,0,0,0,0,0,0,0,0,0,0,0,0,0,0,0,0,0,0,0,0,0,0,0,0,0,0,0,0,0,0,0,0,0,0,0,0,0,0,0,0,0,0,0,0,0,0,0,0,0,0,0,0,0,0,0,0,0,0,0,0,0,0,0,0,0,0,0,0,0,0,0,0,0,0,0,0,0,0,0,0,0,0,0,0,0,0,0,0,0,0,0,0,0,0,0,0,0,0,0,0,0,0,0,3
1,0.7662722,0.5532544,0.2662722,0.1715976,0.0621302,0.0325444,0.0207101,0.0147929,0.0236686,0.0147929,0.035503,0.0236686,0.0207101,0.0266272,0.035503,0.0266272,0.0325444,0.0325444,0.0236686,0.0236686,0.035503,0.0207101,0.0384615,0.0502959,0.0769231,0.0887574,0.1360947,0.147929,0.1982249,0.2100592,0.2189349,0.2218935,0.2100592,0.1952663,0.1804734,0.1597633,0.1568047,0.1272189,0.1301775,0.1213018,0.1242604,0.1242604,0.1272189,0.1301775,0.1390533,0.1390533,0.147929,0.1360947,0.1508876,0.1420118,0.1568047,0.1360947,0.1390533,0.1153846,0.1360947,0.1272189,0.1331361,0.1301775,0.1390533,0.1538462,0.204142,0.1893491,0.2366864,0.260355,0.3017752,0.2810651,0.2633136,0.2159763,0.1272189,0.0946746,0.0857988,0.0769231,0.091716,0.0887574,0.0887574,0.1005917,0.1065089,0.1065089,0.1213018,0.1301775,0.3106509,0.6449704,0.9556213,0.9674556,0.6893491,0.5236686,0.2514793,0.1538462,0.0532544,0.0059172,0.0118343,0,0.0088757,0.0059172,0.0207101,0.0147929,0.0236686,0.0059172,0.0325444,0,0,0,0,0,0,0,0,0,0,0,0,0,0,0,0,0,0,0,0,0,0,0,0,0,0,0,0,0,0,0,0,0,0,0,0,0,0,0,0,0,0,0,0,0,0,0,0,0,0,0,0,0,0,0,0,0,0,0,0,0,0,0,0,0,0,0,0,0,0,0,0,0,0,0,0,0,0,0,0,0,0,0,0,0,0,0,0
0,0.0064516,0.083871,0.2258064,0.3139785,0.4301075,0.4107527,0.3053764,0.2645161,0.2645161,0.255914,0.2451613,0.2580645,0.260215,0.2860215,0.311828,0.3634409,0.3784946,0.4150538,0.4580645,0.516129,0.5655914,0.6172043,0.6580645,0.6817204,0.6494623,0.6215054,0.5741935,0.5354839,0.4688172,0.427957,0.3935484,0.3784946,0.3612903,0.3505376,0.3290323,0.3225806,0.288172,0.2860215,0.2645161,0.2752688,0.2903226,0.3010753,0.283871,0.2924731,0.2924731,0.288172,0.2946236,0.2989247,0.2817204,0.3053764,0.3010753,0.2946236,0.288172,0.2946236,0.2817204,0.3010753,0.283871,0.2752688,0.288172,0.2860215,0.2795699,0.3032258,0.2903226,0.2989247,0.3010753,0.2967742,0.2989247,0.3096774,0.3139785,0.316129,0.3032258,0.3096774,0.3354839,0.344086,0.3978495,0.4580645,0.7075269,0.8795699,1,0.9376344,0.716129,0.3935484,0.2344086,0.2193548,0.1741935,0.1526882,0.1376344,0.1333333,0.1182796,0.111828,0.1075269,0.1225806,0.1204301,0,0,0,0,0,0,0,0,0,0,0,0,0,0,0,0,0,0,0,0,0,0,0,0,0,0,0,0,0,0,0,0,0,0,0,0,0,0,0,0,0,0,0,0,0,0,0,0,0,0,0,0,0,0,0,0,0,0,0,0,0,0,0,0,0,0,0,0,0,0,0,0,0,0,0,0,0,0,0,0,0,0,0,0,0,0,0,0,0,0,0,0,0,2
0,0.0271845,0.0932039,0.2,0.2466019,0.3145631,0.3728155,0.4330097,0.4563107,0.4524272,0.4951456,0.5339806,0.5941747,0.6271845,0.6737864,0.6970874,0.7067961,0.7223301,0.7184466,0.7300971,0.7475728,0.7708738,0.7961165,0.7786407,0.7786407,0.8019418,0.8116505,0.8174757,0.8213592,0.831068,0.8388349,0.8349515,0.846602,0.8291262,0.8388349,0.8116505,0.8038835,0.7786407,0.7669903,0.7514563,0.7203884,0.6932039,0.6873786,0.6718447,0.6640777,0.6427184,0.6310679,0.6019418,0.6135922,0.6019418,0.6213592,0.6058252,0.6116505,0.6038835,0.5805825,0.584466,0.5825243,0.584466,0.592233,0.584466,0.5883495,0.5902913,0.5864078,0.5728155,0.5825243,0.5786408,0.5689321,0.5689321,0.5864078,0.5747573,0.5747573,0.5728155,0.5708738,0.5689321,0.5747573,0.5747573,0.5786408,0.576699,0.5805825,0.5708738,0.5786408,0.5708738,0.5786408,0.5747573,0.5805825,0.5864078,0.5864078,0.5902913,0.5864078,0.607767,0.5825243,0.5689321,0.584466,0.5786408,0.5786408,0.576699,0.5805825,0.5747573,0.5786408,0.584466,0.5902913,0.5747573,0.5728155,0.5689321,0.5786408,0.5631068,0.576699,0.576699,0.576699,0.5728155,0.5786408,0.6271845,0.7029126,0.7961165,0.8912621,1,0.9980583,0.8582524,0.5417476,0.4291262,0.4504854,0.4951456,0.5203884,0.5281553,0.5262136,0.5281553,0.5495146,0.5417476,0.5398058,0,0,0,0,0,0,0,0,0,0,0,0,0,0,0,0,0,0,0,0,0,0,0,0,0,0,0,0,0,0,0,0,0,0,0,0,0,0,0,0,0,0,0,0,0,0,0,0,0,0,0,0,0,0,0,0,0,0,2
1,0.823718,0.474359,0.0096154,0.0128205,0.176282,0.3108974,0.3653846,0.3685897,0.3974359,0.3942308,0.4294872,0.426282,0.4519231,0.4519231,0.4839744,0.5096154,0.551282,0.573718,0.6025641,0.6282051,0.650641,0.6570513,0.6826923,0.6730769,0.6698718,0.6282051,0.6121795,0.5608974,0.5352564,0.474359,0.448718,0.4198718,0.4166667,0.3974359,0.3974359,0.3814103,0.3910256,0.3717949,0.3910256,0.3782051,0.3910256,0.3878205,0.4102564,0.4038461,0.4166667,0.4198718,0.4519231,0.4423077,0.4391026,0.4070513,0.4038461,0.3782051,0.4038461,0.3557692,0.3717949,0.3589744,0.3717949,0.3589744,0.3782051,0.3589744,0.3814103,0.3621795,0.3685897,0.3589744,0.3814103,0.3685897,0.3846154,0.3589744,0.3878205,0.5448718,0.8301282,1,0.8365384,0.4423077,0,0.0673077,0.2307692,0.3301282,0.3782051,0.3942308,0.4166667,0.4070513,0.426282,0.4230769,0.4615385,0,0,0,0,0,0,0,0,0,0,0,0,0,0,0,0,0,0,0,0,0,0,0,0,0,0,0,0,0,0,0,0,0,0,0,0,0,0,0,0,0,0,0,0,0,0,0,0,0,0,0,0,0,0,0,0,0,0,0,0,0,0,0,0,0,0,0,0,0,0,0,0,0,0,0,0,0,0,0,0,0,0,0,0,0,0,0,0,0,0,0,0,0,0,0,0,0,0,0,0,0,0
1,0.5338346,0.575188,0.5639098,0.5639098,0.5413534,0.5,0.3947369,0.2368421,0.0977444,0,0.0902256,0.0977444,0.1015038,0.1842105,0.2142857,0.1879699,0.1766917,0.1691729,0.1804511,0.1804511,0.1729323,0.1729323,0.1616541,0.1729323,0.1766917,0.1766917,0.1804511,0.1616541,0.1954887,0.1992481,0.2067669,0.2142857,0.2293233,0.2631579,0.3195489,0.3270677,0.3421053,0.3721805,0.368421,0.3759398,0.368421,0.3609022,0.3345865,0.3308271,0.3157895,0.2894737,0.2819549,0.2744361,0.3007519,0.2894737,0.2744361,0.2781955,0.2669173,0.2706767,0.2706767,0.2631579,0.2706767,0.2706767,0.2556391,0.2556391,0.2669173,0.2631579,0.2744361,0.2593985,0.2481203,0.2368421,0.2368421,0.2330827,0.2443609,0.2481203,0.2368421,0.2406015,0.2406015,0.2330827,0.2368421,0.2406015,0.2330827,0.2368421,0.2330827,0.2330827,0.2218045,0.2368421,0.2293233,0.2293233,0.2180451,0.2180451,0.2255639,0.2368421,0.2255639,0.2255639,0.2406015,0.2406015,0.2518797,0.2706767,0.3609022,0.9924812,0.7030075,0.5864662,0.6090226,0.6428571,0.6127819,0.5977443,0.5488722,0.4135338,0.2932331,0.0902256,0.0977444,0.0977444,0.0676692,0.1090226,0.1466165,0.1466165,0.1278196,0.131579,0.1729323,0.1804511,0,0,0,0,0,0,0,0,0,0,0,0,0,0,0,0,0,0,0,0,0,0,0,0,0,0,0,0,0,0,0,0,0,0,0,0,0,0,0,0,0,0,0,0,0,0,0,0,0,0,0,0,0,0,0,0,0,0,0,0,0,0,0,0,0,0,0,0,0,0,4
0.838843,0.9566116,0.9008265,0.9297521,0.9669421,1,0.731405,0.4194215,0.2169421,0.1694215,0.1384297,0.107438,0.0991736,0.1053719,0.0867769,0.0867769,0.0661157,0.0661157,0.0578512,0.053719,0.0289256,0.0330578,0.0144628,0.0144628,0,0.0289256,0.0206612,0.0475207,0.0413223,0.0619835,0.0847107,0.1384297,0.1652893,0.1880165,0.2004132,0.2293388,0.2334711,0.214876,0.214876,0.2272727,0.2107438,0.2210744,0.2190083,0.2272727,0.2066116,0.2396694,0.2210744,0.2355372,0.2417355,0.2417355,0.2438017,0.2809917,0.2830578,0.3057851,0.3057851,0.3119835,0.2913223,0.2892562,0.2561983,0.2561983,0.2355372,0.2541322,0.2458678,0.268595,0.2479339,0.2561983,0.2438017,0.25,0.392562,0.7210744,0.9483471,0.6384298,0.3285124,0.2768595,0.2603306,0.2603306,0.2396694,0.2582645,0.2458678,0.2582645,0.2520661,0.2665289,0.2479339,0.2706611,0,0,0,0,0,0,0,0,0,0,0,0,0,0,0,0,0,0,0,0,0,0,0,0,0,0,0,0,0,0,0,0,0,0,0,0,0,0,0,0,0,0,0,0,0,0,0,0,0,0,0,0,0,0,0,0,0,0,0,0,0,0,0,0,0,0,0,0,0,0,0,0,0,0,0,0,0,0,0,0,0,0,0,0,0,0,0,0,0,0,0,0,0,0,0,0,0,0,0,0,0,0,0,2
1,0.5058365,0.5058365,0.5603113,0.5914397,0.5914397,0.5758755,0.5525292,0.5019455,0.3929961,0.2684825,0.0856031,0.07393,0.1245136,0.07393,0.0622568,0.077821,0.0817121,0.0544747,0.0311284,0,0.0272374,0.0116732,0.0272374,0.0194553,0.0350195,0.0272374,0.0311284,0.0272374,0.0389105,0.0311284,0.0505837,0.0350195,0.0622568,0.0428016,0.077821,0.077821,0.1128405,0.1128405,0.1478599,0.151751,0.1867704,0.1828794,0.2140078,0.2217899,0.229572,0.2256809,0.229572,0.2101167,0.2217899,0.2023346,0.2101167,0.1945525,0.2023346,0.1789883,0.1828794,0.1712062,0.1789883,0.1673152,0.1750973,0.1634241,0.1750973,0.1634241,0.1828794,0.1750973,0.1828794,0.1673152,0.1712062,0.155642,0.1673152,0.1673152,0.1750973,0.151751,0.1595331,0.1478599,0.155642,0.1400778,0.1400778,0.1284047,0.1400778,0.1284047,0.1322957,0.1167315,0.1361868,0.1167315,0.1322957,0.1167315,0.1322957,0.1167315,0.1284047,0.1245136,0.1206226,0.1206226,0.1361868,0.1284047,0.1361868,0.1284047,0.1478599,0.1478599,0.1673152,0.1984436,0.3735408,0.9571984,0.5136186,0.5175097,0.540856,0.5525292,0.5564202,0.5486381,0.5252918,0.4552529,0.3463035,0.229572,0.0933852,0.1284047,0.1945525,0.1206226,0.077821,0.0661479,0.0661479,0.0583658,0.0350195,0.0077821,0,0,0,0,0,0,0,0,0,0,0,0,0,0,0,0,0,0,0,0,0,0,0,0,0,0,0,0,0,0,0,0,0,0,0,0,0,0,0,0,0,0,0,0,0,0,0,0,0,0,0,0,0,0,0,0,0,0,0,0,0,0,0,0,4
1,0.8778833,0.660787,0.348711,0.1031208,0.0814111,0.0854817,0.0569878,0.0434193,0.036635,0.0217096,0.0217096,0.0162822,0.0054274,0.0027137,0.0013569,0.0040706,0.0067843,0.0040706,0.0122117,0.0257802,0.0312076,0.0529172,0.0759837,0.1004071,0.1275441,0.14654,0.1818182,0.2184532,0.2320217,0.2564451,0.2727273,0.2795115,0.2917232,0.2849389,0.2767978,0.2686567,0.2496608,0.2320217,0.2238806,0.1994573,0.1858887,0.1736771,0.1682497,0.1723202,0.1601086,0.1682497,0.1994573,0.2211669,0.2374491,0.2496608,0.2442334,0.2143826,0.1750339,0.1438263,0.1506106,0.1533243,0.1478969,0.1506106,0.1506106,0.1614654,0.1506106,0.1383989,0.2320217,0.5020353,0.8317503,0.8276798,0.5169607,0.2008141,0,0.0325645,0.1221167,0.0963365,0.0773406,0.0759837,0.0705563,0.0746269,0.0583446,0.0556309,0,0,0,0,0,0,0,0,0,0,0,0,0,0,0,0,0,0,0,0,0,0,0,0,0,0,0,0,0,0,0,0,0,0,0,0,0,0,0,0,0,0,0,0,0,0,0,0,0,0,0,0,0,0,0,0,0,0,0,0,0,0,0,0,0,0,0,0,0,0,0,0,0,0,0,0,0,0,0,0,0,0,0,0,0,0,0,0,0,0,0,0,0,0,0,0,0,0,0,0,0,0,0,0,0,0,0,0,3
1,0.489083,0.1179039,0.1353712,0.1048035,0.0393013,0.1222707,0.1615721,0.2882096,0.3537118,0.3973799,0.3842795,0.3973799,0.3755459,0.3886463,0.3449782,0.3755459,0.3624454,0.3755459,0.3624454,0.3799127,0.371179,0.3580786,0.3406114,0.3275109,0.2838428,0.2925764,0.2227074,0.2052402,0.1441048,0.1004367,0.0524017,0.0305677,0,0.069869,0.1222707,0.2270742,0.2358079,0.3318777,0.2751092,0.2751092,0.2532751,0.2401747,0.2183406,0.2445415,0.2445415,0.2401747,0.2314411,0.2489083,0.2445415,0.2707424,0.2227074,0.2358079,0.2183406,0.2314411,0.2008734,0.2052402,0.1703057,0.1353712,0.069869,0.1048035,0.0611354,0.069869,0.0087336,0.1659389,0.6768559,0.9519651,0.3624454,0.1703057,0.2751092,0.3362446,0.2838428,0.30131,0.2620087,0.279476,0.2707424,0.2925764,0,0,0,0,0,0,0,0,0,0,0,0,0,0,0,0,0,0,0,0,0,0,0,0,0,0,0,0,0,0,0,0,0,0,0,0,0,0,0,0,0,0,0,0,0,0,0,0,0,0,0,0,0,0,0,0,0,0,0,0,0,0,0,0,0,0,0,0,0,0,0,0,0,0,0,0,0,0,0,0,0,0,0,0,0,0,0,0,0,0,0,0,0,0,0,0,0,0,0,0,0,0,0,0,0,0,0,0,0,0,0
0.9397163,0.8014184,0.5088652,0.2322695,0.0460993,0,0.0141844,0.037234,0.0549645,0.0567376,0.0567376,0.0514184,0.0478723,0.0602837,0.0620567,0.0549645,0.0496454,0.0567376,0.0585106,0.0531915,0.0496454,0.0478723,0.0531915,0.0514184,0.0425532,0.0443262,0.0496454,0.0425532,0.037234,0.0425532,0.0478723,0.0478723,0.0390071,0.0531915,0.0567376,0.0567376,0.0602837,0.0744681,0.0939716,0.0992908,0.1117021,0.1276596,0.141844,0.1542553,0.1613475,0.1719858,0.1826241,0.1826241,0.1737589,0.1755319,0.1666667,0.1507092,0.1382979,0.1312057,0.1223404,0.1170213,0.108156,0.108156,0.1117021,0.1046099,0.106383,0.1099291,0.1170213,0.1117021,0.1134752,0.1241135,0.1329787,0.1347518,0.1276596,0.1365248,0.141844,0.141844,0.1347518,0.1471631,0.1507092,0.1471631,0.143617,0.1489362,0.1560284,0.1578014,0.1507092,0.1524823,0.1595745,0.1560284,0.1542553,0.1595745,0.1666667,0.1648936,0.1631206,0.1684397,0.1755319,0.1648936,0.1648936,0.1737589,0.1755319,0.1755319,0.1684397,0.1755319,0.1808511,0.1719858,0.1702128,0.1755319,0.1826241,0.177305,0.177305,0.179078,0.1843972,0.1826241,0.1755319,0.1861702,0.1897163,0.1861702,0.1808511,0.1897163,0.2003546,0.2003546,0.1897163,0.1985816,0.2163121,0.2180851,0.214539,0.2056738,0.2092199,0.2021277,0.212766,0.2180851,0.2180851,0.1897163,0.1808511,0.1879433,0.1897163,0.1897163,0.179078,0.2109929,0.287234,0.3280142,0.2783688,0.2890071,0.4982269,0.7322695,0.9468085,1,0.8333333,0.5372341,0.2978723,0.1382979,0.0851064,0.0904255,0.1223404,0.1382979,0.1382979,0.1347518,0.1329787,0.1400709,0.1400709,0.1312057,0.1276596,0.1347518,0.1347518,0.1329787,0.1312057,0.1258865,0.1329787,0.1187943,0.1170213,0.1205674,0.1223404,0.1187943,0.1152482,0.1099291,0,0,0,0,0,0,0,0,0,0,0,0,0,0,0,0,0,0
1,0.911859,0.4711539,0.161859,0.2195513,0.261218,0.2147436,0.2003205,0.213141,0.2067308,0.1971154,0.1875,0.1746795,0.1746795,0.161859,0.1490385,0.1522436,0.1474359,0.1330128,0.1266026,0.1201923,0.1153846,0.1009615,0.0865385,0.0785256,0.0785256,0.0625,0.0448718,0.0448718,0.0400641,0.0176282,0,0.0080128,0.0144231,0.0304487,0.0608974,0.0849359,0.1121795,0.1298077,0.1458333,0.161859,0.1778846,0.176282,0.1826923,0.1778846,0.1794872,0.1794872,0.1730769,0.1826923,0.1842949,0.1858974,0.1875,0.2051282,0.2227564,0.2227564,0.2211538,0.2291667,0.2339744,0.2275641,0.2211538,0.224359,0.2163462,0.2051282,0.198718,0.1955128,0.1955128,0.1875,0.1858974,0.1842949,0.1810897,0.1746795,0.1682692,0.1730769,0.1746795,0.1682692,0.1698718,0.1794872,0.1826923,0.1842949,0.1907051,0.1971154,0.2003205,0.198718,0.1955128,0.1971154,0.2003205,0.1923077,0.1810897,0.1875,0.1875,0.1810897,0.1778846,0.1794872,0.1842949,0.176282,0.1698718,0.176282,0.1810897,0.1682692,0.1458333,0.2227564,0.463141,0.7980769,0.9967949,0.9134616,0.4839744,0.1121795,0.1410256,0.1858974,0.1634615,0.1554487,0.1490385,0.1346154,0.1346154,0.1282051,0.1169872,0.1153846,0.1121795,0.1025641,0.0929487,0,0,0,0,0,0,0,0,0,0,0,0,0,0,0,0,0,0,0,0,0,0,0,0,0,0,0,0,0,0,0,0,0,0,0,0,0,0,0,0,0,0,0,0,0,0,0,0,0,0,0,0,0,0,0,0,0,0,0,0,0,0,0,0,0,0,0,0
0.0098232,0,0.0491159,0.129666,0.194499,0.2829077,0.3929273,0.502947,0.5952849,0.611002,0.6444008,0.6502947,0.6719057,0.6777996,0.6954814,0.697446,0.7170923,0.7367387,0.7485265,0.7563851,0.7760314,0.7858546,0.8094302,0.805501,0.8408644,0.8369352,0.8526523,0.8447937,0.8526523,0.8467584,0.8349705,0.8172888,0.7996071,0.7779961,0.7563851,0.7269155,0.7092338,0.6797643,0.6601179,0.6522593,0.6286837,0.611002,0.6149312,0.5972495,0.5854617,0.5815324,0.5874263,0.5776032,0.583497,0.5717092,0.5736738,0.5854617,0.5736738,0.5717092,0.5795678,0.5736738,0.5736738,0.5697446,0.5756385,0.5736738,0.5776032,0.5717092,0.5776032,0.5559921,0.5697446,0.5697446,0.5638507,0.5520629,0.5618861,0.5579568,0.5540275,0.5500982,0.5579568,0.5520629,0.5481336,0.5579568,0.5599214,0.546169,0.5559921,0.546169,0.5442043,0.5481336,0.5520629,0.5481336,0.5520629,0.5481336,0.5559921,0.5599214,0.5500982,0.5442043,0.5559921,0.5540275,0.5618861,0.5559921,0.5638507,0.5500982,0.5599214,0.5540275,0.5579568,0.5618861,0.5776032,0.5736738,0.5815324,0.5776032,0.5736738,0.5618861,0.5500982,0.5481336,0.5618861,0.5520629,0.5579568,0.5599214,0.5658153,0.5520629,0.5618861,0.5500982,0.5599214,0.5599214,0.5520629,0.5540275,0.546169,0.56778,0.6660118,0.7701375,0.8860511,0.9901768,1,0.7465619,0.4341847,0.4086444,0.4774067,0.4891945,0.5009823,0.4852652,0.4970531,0.5186641,0.5088409,0.5009823,0.5088409,0,0,0,0,0,0,0,0,0,0,0,0,0,0,0,0,0,0,0,0,0,0,0,0,0,0,0,0,0,0,0,0,0,0,0,0,0,0,0,0,0,0,0,0,0,0,0,0,2
0.9017857,0.8705357,0.6517857,0.4107143,0.2455357,0.1517857,0.0892857,0.0848214,0.0982143,0.1160714,0.1071429,0.1116071,0.1205357,0.1339286,0.1383929,0.1294643,0.1294643,0.1473214,0.1428571,0.1339286,0.1607143,0.1741071,0.1651786,0.1473214,0.1651786,0.1964286,0.1875,0.1741071,0.1964286,0.2098214,0.2142857,0.2098214,0.2276786,0.2366071,0.2232143,0.2142857,0.2008929,0.2142857,0.1785714,0.1473214,0.1383929,0.1339286,0.09375,0.0758929,0.0758929,0.0803571,0.0714286,0.0580357,0.0491071,0.0580357,0.0535714,0.0446429,0.0491071,0.0491071,0.03125,0.0178571,0.0267857,0.03125,0.0267857,0.0133929,0.0178571,0.0267857,0.0089286,0.0089286,0.0089286,0.0267857,0.03125,0,0.0267857,0.0446429,0.0357143,0.0178571,0.0178571,0.0357143,0.0357143,0.0133929,0.0357143,0.0446429,0.0357143,0.03125,0.0401786,0.0491071,0.0535714,0.0357143,0.0446429,0.0714286,0.0446429,0.0401786,0.0491071,0.0580357,0.0535714,0.0401786,0.0535714,0.0714286,0.0669643,0.0580357,0.0803571,0.1160714,0.1071429,0.1026786,0.1160714,0.1428571,0.1160714,0.0982143,0.1116071,0.1205357,0.09375,0.0669643,0.0669643,0.09375,0.0803571,0.0714286,0.0892857,0.1294643,0.2678571,0.5625,0.8616071,1,0.9330357,0.6830357,0.5089286,0.34375,0.1964286,0.09375,0.0982143,0.1517857,0.1160714,0.1160714,0.1339286,0.1428571,0.1473214,0.1383929,0.1517857,0.1741071,0.1741071,0.15625,0.1741071,0.1875,0.1830357,0.1830357,0.1919643,0,0,0,0,0,0,0,0,0,0,0,0,0,0,0,0,0,0,0,0,0,0,0,0,0,0,0,0,0,0,0,0,0,0,0,0,0,0,0,0,0,0,0,0,0,0,0
1,0.958379,0.8116101,0.8006572,0.7469879,0.7338445,0.7174151,0.6955093,0.7075575,0.728368,0.7228916,0.6637459,0.5640745,0.516977,0.4698795,0.4140197,0.3439211,0.3209201,0.2836802,0.2081051,0.2081051,0.2135816,0.203724,0.2924425,0.4665937,0.5805038,0.6757941,0.762322,0.8083242,0.83023,0.822563,0.8378971,0.8543264,0.8707557,0.8740416,0.8630887,0.8324206,0.8148959,0.7864184,0.7612267,0.720701,0.6714129,0.6013144,0.5542169,0.4950712,0.4523549,0.4315444,0.4205914,0.4096386,0.4063527,0.3647316,0.3373494,0.3417306,0.3559693,0.3603505,0.3800657,0.4194962,0.4578313,0.5301205,0.6177437,0.6856517,0.7612267,0.8006572,0.8116101,0.8028477,0.7656079,0.6856517,0.6067908,0.5651698,0.5443593,0.5158817,0.49069,0.4709748,0.4271632,0.3986857,0.3844469,0.3691128,0.3723987,0.4041621,0.4994524,0.5969332,0.6166484,0.4589266,0.3504929,0.2617744,0.1894852,0.1478642,0.1007667,0.0558598,0.0186199,0,0.0273823,0.0164294,0.0920044,0.2124863,0.2530121,0.279299,0,0,0,0,0,0,0,0,0,0,0,0,0,0,0,0,0,0,0,0,0,0,0,0,0,0,0,0,0,0,0,0,0,0,0,0,0,0,0,0,0,0,0,0,0,0,0,0,0,0,0,0,0,0,0,0,0,0,0,0,0,0,0,0,0,0,0,0,0,0,0,0,0,0,0,0,0,0,0,0,0,0,0,0,0,0,0,0,0,0,0
1,0.9346247,0.7118644,0.3389831,0.283293,0.220339,0.1864407,0.1380145,0.1283293,0.0992736,0.0920097,0.0605327,0.062954,0.0460048,0.0460048,0.0411622,0.0581114,0.0411622,0.0435835,0.0242131,0.0193705,0,0.0096852,0,0.031477,0.0290557,0.0653753,0.0799031,0.1162228,0.1234867,0.1549637,0.1525424,0.1791768,0.1694915,0.188862,0.1791768,0.1937046,0.188862,0.2033898,0.1985472,0.220339,0.2154964,0.2372881,0.2324455,0.2469734,0.2469734,0.2639225,0.2566586,0.2760291,0.2736078,0.2784504,0.2590799,0.2808717,0.2639225,0.2687651,0.2493947,0.2639225,0.2372881,0.2469734,0.2300242,0.2542373,0.220339,0.2397094,0.2276029,0.2372881,0.220339,0.2227603,0.2009685,0.220339,0.2106538,0.2227603,0.2106538,0.2227603,0.2033898,0.2179177,0.2033898,0.2082324,0.1985472,0.220339,0.1985472,0.2154964,0.2009685,0.2179177,0.1937046,0.2130751,0.1985472,0.220339,0.2082324,0.220339,0.2058111,0.2300242,0.2106538,0.2227603,0.2130751,0.1985472,0.1961259,0.2130751,0.1985472,0.2106538,0.2106538,0.2251816,0.2106538,0.2227603,0.2130751,0.2300242,0.220339,0.2324455,0.2227603,0.2372881,0.2324455,0.2493947,0.2397094,0.2639225,0.2711864,0.3075061,0.3171913,0.3656174,0.3510896,0.3607748,0.3389831,0.3050847,0.2687651,0.2639225,0.2542373,0.2711864,0.2663438,0.2929782,0.3607748,0.6368039,0.8159806,0.811138,0.4915254,0.2397094,0.2421308,0.2372881,0.2251816,0.2227603,0.2058111,0.2130751,0.1985472,0.2058111,0,0,0,0,0,0,0,0,0,0,0,0,0,0,0,0,0,0,0,0,0,0,0,0,0,0,0,0,0,0,0,0,0,0,0,0,0,0,0,0,0,0,0,0,0,0,2
1,0.9634434,0.7535377,0.4410377,0.1792453,0.1426887,0.1615566,0.1261792,0.1061321,0.0955189,0.0790094,0.071934,0.0589623,0.0389151,0.0341981,0.0224057,0.0153302,0.0058962,0,0.004717,0.0129717,0.0224057,0.0400943,0.0636792,0.0825472,0.1167453,0.1497642,0.196934,0.2299528,0.2535377,0.2841981,0.3066038,0.317217,0.3242925,0.3242925,0.3254717,0.3195755,0.2983491,0.2853774,0.2818396,0.2665094,0.2523585,0.2464623,0.2441038,0.2511792,0.2511792,0.2535377,0.2771226,0.2983491,0.3148585,0.3301887,0.3349057,0.3113208,0.2641509,0.2429245,0.2393868,0.2370283,0.2393868,0.2358491,0.2441038,0.245283,0.2382075,0.2334906,0.254717,0.4162736,0.692217,0.8997642,0.7712264,0.446934,0.1627358,0.0566038,0.1403302,0.1910377,0.1745283,0.1580189,0.1650943,0.1627358,0.1462264,0.1521226,0,0,0,0,0,0,0,0,0,0,0,0,0,0,0,0,0,0,0,0,0,0,0,0,0,0,0,0,0,0,0,0,0,0,0,0,0,0,0,0,0,0,0,0,0,0,0,0,0,0,0,0,0,0,0,0,0,0,0,0,0,0,0,0,0,0,0,0,0,0,0,0,0,0,0,0,0,0,0,0,0,0,0,0,0,0,0,0,0,0,0,0,0,0,0,0,0,0,0,0,0,0,0,0,0,0,0,0,2
0.8630573,0.8535032,0.3821656,0.0159236,0,0.0159236,0.1082803,0.0859873,0.0732484,0.1369427,0.1496815,0.1496815,0.1433121,0.1687898,0.1719745,0.1942675,0.2006369,0.2038217,0.1942675,0.2101911,0.1847134,0.2292994,0.1847134,0.2356688,0.2420382,0.2452229,0.2356688,0.2515924,0.2802548,0.2675159,0.2770701,0.2770701,0.2452229,0.2292994,0.2165605,0.2197452,0.2484076,0.2643312,0.2165605,0.2324841,0.2388535,0.2197452,0.178344,0.2133758,0.1719745,0.1910828,0.1528662,0.1751592,0.1656051,0.1687898,0.1719745,0.1624204,0.1656051,0.1719745,0.1528662,0.1751592,0.2101911,0.2229299,0.2197452,0.2484076,0.2484076,0.2261146,0.1942675,0.2006369,0.1974522,0.178344,0.1656051,0.2006369,0.1815287,0.1910828,0.1751592,0.1910828,0.1878981,0.2006369,0.1751592,0.2070064,0.2484076,0.2292994,0.2197452,0.2324841,0.3407643,0.5159236,0.6337579,0.8630573,1,0.9617835,0.3535032,0.0254777,0.0159236,0.1305732,0.1433121,0.1624204,0.1528662,0.1719745,0.1719745,0.2197452,0.2261146,0.2197452,0.2101911,0.2229299,0,0,0,0,0,0,0,0,0,0,0,0,0,0,0,0,0,0,0,0,0,0,0,0,0,0,0,0,0,0,0,0,0,0,0,0,0,0,0,0,0,0,0,0,0,0,0,0,0,0,0,0,0,0,0,0,0,0,0,0,0,0,0,0,0,0,0,0,0,0,0,0,0,0,0,0,0,0,0,0,0,0,0,0,0,0,0,0
1,0.970297,0.6237624,0.2788779,0.1485149,0.029703,0,0.0181518,0.0676568,0.1006601,0.1023102,0.1023102,0.1006601,0.0990099,0.0940594,0.0973597,0.1006601,0.1056106,0.1089109,0.1122112,0.120462,0.1369637,0.150165,0.1683168,0.179868,0.1947195,0.19967,0.2029703,0.1980198,0.1963696,0.1963696,0.1914191,0.1864686,0.1831683,0.1848185,0.1881188,0.1831683,0.1881188,0.1864686,0.1947195,0.1930693,0.1930693,0.189769,0.1963696,0.19967,0.1963696,0.1930693,0.1980198,0.2079208,0.2112211,0.2178218,0.2293729,0.2326733,0.2161716,0.2079208,0.2029703,0.2079208,0.189769,0.189769,0.1881188,0.1881188,0.1914191,0.1914191,0.1963696,0.1963696,0.1963696,0.1980198,0.19967,0.2029703,0.1963696,0.2277228,0.3927393,0.5462046,0.5693069,0.3910891,0.0907591,0.0016502,0.1006601,0.1683168,0.1947195,0.2013201,0.2112211,0.2194719,0.2244224,0.2260726,0.2376238,0,0,0,0,0,0,0,0,0,0,0,0,0,0,0,0,0,0,0,0,0,0,0,0,0,0,0,0,0,0,0,0,0,0,0,0,0,0,0,0,0,0,0,0,0,0,0,0,0,0,0,0,0,0,0,0,0,0,0,0,0,0,0,0,0,0,0,0,0,0,0,0,0,0,0,0,0,0,0,0,0,0,0,0,0,0,0,0,0,0,0,0,0,0,0,0,0,0,0,0,0,2
1,0.5525424,0.2949153,0.3389831,0.3559322,0.3152542,0.3525424,0.3254237,0.3491525,0.3355932,0.3559322,0.3322034,0.3423729,0.3423729,0.3525424,0.3491525,0.3389831,0.3118644,0.3491525,0.3254237,0.3457627,0.3050847,0.3152542,0.2983051,0.3220339,0.2949153,0.3220339,0.2745763,0.2779661,0.2542373,0.2610169,0.2440678,0.2372881,0.2271186,0.240678,0.2271186,0.220339,0.2169491,0.2169491,0.1898305,0.2135593,0.1966102,0.2067797,0.1864407,0.2067797,0.1627119,0.1966102,0.1762712,0.1864407,0.1559322,0.2135593,0.1762712,0.179661,0.1627119,0.1694915,0.1864407,0.2,0.1728813,0.1898305,0.1728813,0.1864407,0.179661,0.1762712,0.1627119,0.1932203,0.1830508,0.1694915,0.1627119,0.1966102,0.1694915,0.1830508,0.1728813,0.1661017,0.159322,0.1694915,0.1491525,0.1762712,0.1491525,0.1762712,0.1322034,0.1525424,0.1254237,0.1661017,0.1559322,0.1559322,0.1355932,0.1525424,0.1491525,0.1525424,0.1220339,0.1423729,0.1491525,0.1457627,0.1288136,0.1288136,0.1118644,0.1322034,0.1118644,0.1423729,0.1220339,0.1288136,0.1050847,0.1220339,0.1084746,0.1254237,0.0983051,0.1254237,0.1084746,0.1186441,0.0915254,0.1254237,0.0949153,0.1050847,0.1050847,0.1118644,0.1050847,0.1152542,0.0813559,0.0711864,0,0,0.0101695,0.061017,0.0813559,0.1118644,0.1118644,0.1457627,0.1559322,0.1525424,0.1389831,0.1728813,0.1559322,0.1898305,0.159322,0.1254237,0.359322,0.7627119,0.4067796,0.1220339,0.1966102,0.2135593,0.1830508,0.220339,0.2101695,0.2440678,0.2067797,0.2271186,0.2169491,0.2169491,0.220339,0.240678,0.220339,0.2508475,0.240678,0.2474576,0.2271186,0.2508475,0.220339,0.2372881,0,0,0,0,0,0,0,0,0,0,0,0,0,0,0,0,0,0,0,0,0,0,0,0,0,0,0,0,0
0.0111111,0.1,0.2527778,0.3861111,0.5027778,0.5805556,0.7111111,0.75,0.7972222,0.7611111,0.7861111,0.7888889,0.7888889,0.7833334,0.8055556,0.8055556,0.8222222,0.8222222,0.8444445,0.8333333,0.8472222,0.8583333,0.8805556,0.8916667,0.9111111,0.9111111,0.9277778,0.9388889,0.9527778,0.9555556,0.9777778,0.9722222,1,0.9833333,0.9944444,0.975,0.9916667,0.975,0.975,0.9527778,0.9527778,0.9361111,0.9305556,0.9138889,0.9055555,0.8916667,0.8805556,0.8694444,0.8638889,0.8527778,0.8583333,0.8416666,0.8416666,0.8333333,0.8277778,0.8194444,0.8027778,0.7861111,0.8,0.7777778,0.775,0.7694445,0.7777778,0.7611111,0.7722222,0.7583333,0.7666667,0.7472222,0.7527778,0.7472222,0.7555556,0.7555556,0.7583333,0.7583333,0.7527778,0.725,0.75,0.7333333,0.7277778,0.7361111,0.7333333,0.7277778,0.7305555,0.7222222,0.7277778,0.7166666,0.7305555,0.7361111,0.7305555,0.7277778,0.7277778,0.7277778,0.725,0.725,0.7305555,0.7361111,0.7444444,0.7555556,0.7694445,0.725,0.6916667,0.5666667,0.4361111,0.2222222,0,0.0944444,0.2222222,0.375,0.4833333,0.5555556,0.7083333,0.7722222,0.7861111,0.7805555,0.7972222,0.7972222,0.8083333,0.8111111,0.8277778,0.8166667,0.8333333,0.8333333,0.85,0.8583333,0.8805556,0.8694444,0,0,0,0,0,0,0,0,0,0,0,0,0,0,0,0,0,0,0,0,0,0,0,0,0,0,0,0,0,0,0,0,0,0,0,0,0,0,0,0,0,0,0,0,0,0,0,0,0,0,0,0,0,0,0,0,0,0,0,0,0,0
0.9088542,0.7578125,0.3359375,0,0.046875,0.0651042,0.0677083,0.03125,0.0416667,0.0260417,0.0364583,0.0286458,0.0338542,0.03125,0.0286458,0.0364583,0.046875,0.0416667,0.046875,0.0494792,0.0598958,0.0598958,0.0729167,0.0651042,0.0755208,0.0729167,0.0885417,0.0833333,0.0963542,0.1067708,0.1276042,0.1380208,0.1536458,0.15625,0.1744792,0.1640625,0.1875,0.1822917,0.1796875,0.1692708,0.1588542,0.1432292,0.125,0.0989583,0.09375,0.0833333,0.0911458,0.0833333,0.1041667,0.0911458,0.1041667,0.09375,0.1041667,0.1041667,0.1276042,0.1223958,0.1302083,0.1302083,0.140625,0.1276042,0.1276042,0.1223958,0.1223958,0.1067708,0.1119792,0.1015625,0.109375,0.0989583,0.109375,0.1067708,0.1041667,0.0989583,0.1171875,0.1041667,0.0989583,0.0963542,0.1171875,0.1015625,0.1015625,0.1041667,0.1015625,0.0859375,0.0885417,0.0833333,0.0833333,0.0729167,0.0911458,0.0911458,0.0963542,0.0911458,0.1015625,0.09375,0.0989583,0.09375,0.1171875,0.0963542,0.1171875,0.1041667,0.1067708,0.0859375,0.0989583,0.0885417,0.0885417,0.0833333,0.0833333,0.0807292,0.0989583,0.0963542,0.1067708,0.0911458,0.0989583,0.0963542,0.1041667,0.1015625,0.1119792,0.1145833,0.1223958,0.1041667,0.1119792,0.1015625,0.0911458,0.09375,0.1015625,0.0885417,0.1041667,0.0963542,0.1015625,0.0963542,0.109375,0.1119792,0.1171875,0.1145833,0.1354167,0.1276042,0.1354167,0.1276042,0.1328125,0.1119792,0.1171875,0.1067708,0.1197917,0.1145833,0.1223958,0.1197917,0.1197917,0.1145833,0.1328125,0.1197917,0.1354167,0.125,0.1432292,0.1354167,0.1458333,0.1328125,0.1510417,0.1536458,0.1848958,0.2994792,0.5598958,0.8151042,1,0.703125,0.2630208,0.09375,0.1536458,0.1171875,0.1041667,0.0807292,0.0859375,0.0703125,0.0729167,0.0625,0.078125,0.0703125,0.078125,0.0807292,0.0859375,0.0911458,0.1041667,0.0911458,0.0989583,0.1041667,0,0,0,0,0,0
0.0096618,0,0.0374396,0.1219807,0.2065217,0.2644928,0.352657,0.4202898,0.4516908,0.5374396,0.634058,0.6485507,0.6400966,0.6400966,0.6497585,0.6642512,0.6739131,0.6823671,0.6932367,0.7077295,0.7270532,0.7403381,0.7548309,0.7705314,0.7862319,0.7850242,0.7777778,0.7693236,0.7608696,0.7318841,0.6992754,0.6727053,0.6485507,0.6195652,0.5942029,0.5797101,0.5652174,0.5507246,0.5386474,0.5350242,0.5326087,0.531401,0.5301932,0.5301932,0.5350242,0.5326087,0.5277778,0.5301932,0.5301932,0.5229468,0.5205314,0.5193236,0.5193236,0.5193236,0.5157005,0.5181159,0.5205314,0.5193236,0.5169082,0.5157005,0.5157005,0.5072464,0.5060387,0.5144928,0.5157005,0.5108696,0.5096619,0.5084541,0.5157005,0.5120773,0.5096619,0.5205314,0.531401,0.5483092,0.5531401,0.5748792,0.5978261,0.5881643,0.5748792,0.5797101,0.571256,0.5458937,0.5241546,0.5169082,0.5108696,0.5048309,0.5012077,0.5060387,0.5048309,0.5241546,0.6147343,0.7741546,0.9154589,1,0.9528986,0.7210145,0.5507246,0.5144928,0.4915459,0.4649758,0.4637681,0.4565217,0.4456522,0,0,0,0,0,0,0,0,0,0,0,0,0,0,0,0,0,0,0,0,0,0,0,0,0,0,0,0,0,0,0,0,0,0,0,0,0,0,0,0,0,0,0,0,0,0,0,0,0,0,0,0,0,0,0,0,0,0,0,0,0,0,0,0,0,0,0,0,0,0,0,0,0,0,0,0,0,0,0,0,0,0,0,0,2
1,0.8784314,0.5490196,0.1647059,0.027451,0.1529412,0.2392157,0.2901961,0.3137255,0.3019608,0.2941177,0.3098039,0.3215686,0.3098039,0.2980392,0.3058824,0.3098039,0.2901961,0.2745098,0.2901961,0.2941177,0.282353,0.2666667,0.2666667,0.2745098,0.2666667,0.2470588,0.2784314,0.2588235,0.2588235,0.2588235,0.2745098,0.2901961,0.2901961,0.3137255,0.3490196,0.3843137,0.3960784,0.4313726,0.4745098,0.5137255,0.5294118,0.5372549,0.5333334,0.5333334,0.5176471,0.5019608,0.4941176,0.4941176,0.4784314,0.4588235,0.4666667,0.4705882,0.454902,0.4392157,0.454902,0.4588235,0.4352941,0.4313726,0.4470588,0.4588235,0.4431373,0.4196078,0.4431373,0.4352941,0.4431373,0.4313726,0.4352941,0.4470588,0.454902,0.4627451,0.5019608,0.5137255,0.5019608,0.5019608,0.5176471,0.4941176,0.4705882,0.4470588,0.427451,0.427451,0.4,0.3803922,0.3843137,0.3921569,0.3843137,0.372549,0.3921569,0.4117647,0.4,0.4392157,0.6196079,0.9058824,0.9411765,0.6,0.1843137,0,0.1411765,0.2039216,0.254902,0.2980392,0.2980392,0.2862745,0.2980392,0.3058824,0.2901961,0.2666667,0.282353,0.2784314,0.2666667,0.2509804,0,0,0,0,0,0,0,0,0,0,0,0,0,0,0,0,0,0,0,0,0,0,0,0,0,0,0,0,0,0,0,0,0,0,0,0,0,0,0,0,0,0,0,0,0,0,0,0,0,0,0,0,0,0,0,0,0,0,0,0,0,0,0,0,0,0,0,0,0,0,0,0,0,0,0,0,0
0.8318584,0.7433628,0.339233,0.100295,0.0324484,0.0648968,0.0265487,0.020649,0.0088496,0.0176991,0.0147493,0.0147493,0,0.0235988,0.020649,0.020649,0.0265487,0.0412979,0.0471976,0.0678466,0.0501475,0.0766962,0.0766962,0.0973451,0.100295,0.1238938,0.1356932,0.1622419,0.1710915,0.1976401,0.2123894,0.2359882,0.238938,0.2625369,0.2625369,0.2654867,0.2507375,0.2300885,0.1917404,0.159292,0.1238938,0.1091445,0.0766962,0.0560472,0.0501475,0.0530973,0.0383481,0.058997,0.0442478,0.0471976,0.058997,0.0560472,0.0501475,0.0530973,0.0442478,0.0619469,0.0471976,0.0648968,0.0560472,0.0678466,0.0619469,0.0766962,0.0530973,0.0707965,0.0678466,0.0648968,0.058997,0.0678466,0.0530973,0.0707965,0.0707965,0.079646,0.0530973,0.0648968,0.0648968,0.0707965,0.0648968,0.0737463,0.0825959,0.0914454,0.058997,0.079646,0.0766962,0.0737463,0.079646,0.0973451,0.0884956,0.0855457,0.079646,0.1061947,0.1061947,0.1061947,0.0943953,0.100295,0.1120944,0.1061947,0.0943953,0.0943953,0.0943953,0.1091445,0.1032448,0.1150443,0.1179941,0.1268437,0.120944,0.1179941,0.1297935,0.1415929,0.1474926,0.1474926,0.1504425,0.1740413,0.1651917,0.1740413,0.1887906,0.20059,0.1858407,0.179941,0.159292,0.1504425,0.1268437,0.1327434,0.1238938,0.1268437,0.1297935,0.1415929,0.1474926,0.1356932,0.1091445,0.1327434,0.1415929,0.1828909,0.2330384,0.3923304,0.6017699,0.8171092,1,0.9144543,0.480826,0.2153392,0.1445428,0.1887906,0.1504425,0.1356932,0.120944,0.1238938,0.1150443,0.1238938,0.1150443,0.1297935,0.1297935,0.1386431,0.1297935,0.1504425,0.1415929,0.1474926,0.1386431,0.1681416,0.1651917,0.1769911,0.1887906,0.2094395,0,0,0,0,0,0,0,0,0,0,0,0,0,0,0,0,0,0,0,0,0,0,0,0,0,0
0.887468,0.8209718,0.7365729,0.6086956,0.5780051,0.4501279,0.3120205,0.2173913,0.1662404,0.1329923,0.0971867,0.056266,0.0332481,0.0306905,0.0153453,0.0230179,0,0.028133,0.0409207,0.0485933,0.0485933,0.056266,0.0153453,0.0204604,0.0179028,0.028133,0.0332481,0.0358056,0.0613811,0.084399,0.0997442,0.1150895,0.1483376,0.1841432,0.2097187,0.2250639,0.2225064,0.2327366,0.2378517,0.2352941,0.2225064,0.2071611,0.2071611,0.202046,0.1918159,0.1892583,0.1892583,0.202046,0.2097187,0.2122762,0.1969309,0.1636829,0.1611253,0.1662404,0.1611253,0.1662404,0.1534527,0.1483376,0.1278772,0.1329923,0.1227622,0.1023018,0.1023018,0.0997442,0.0971867,0.0895141,0.0971867,0.0920716,0.0818414,0.0895141,0.0613811,0.0588235,0.0664962,0.0792839,0.0690537,0.0639386,0.0690537,0.0664962,0.0383632,0.056266,0.0639386,0.0434783,0.056266,0.0716113,0.0255754,0.0358056,0.0383632,0.0358056,0.0306905,0.0409207,0.0332481,0.028133,0.0434783,0.0409207,0.0230179,0.0383632,0.0434783,0.0306905,0.0332481,0.0306905,0.0358056,0.0485933,0.056266,0.0690537,0.0639386,0.0409207,0.056266,0.0639386,0.0358056,0.0537084,0.0639386,0.0741688,0.0741688,0.0792839,0.0767263,0.0920716,0.0946292,0.1048593,0.0971867,0.1023018,0.1048593,0.1150895,0.1074169,0.1253197,0.112532,0.1176471,0.1253197,0.1227622,0.140665,0.1278772,0.1176471,0.1355499,0.1560102,0.1892583,0.2173913,0.2736573,0.2659847,0.2659847,0.2506394,0.1841432,0.173913,0.1560102,0.1483376,0.1457801,0.1457801,0.1304348,0.173913,0.5549872,0.9641944,1,0.5524297,0.0255754,0.1099744,0.1023018,0.0920716,0.0920716,0.0869565,0.0869565,0.0971867,0.0971867,0.0997442,0,0,0,0,0,0,0,0,0,0,0,0,0,0,0,0,0,0,0,0,0,0,0,0,0,0,2
0.962069,0.8517241,0.5103448,0.1862069,0.1,0.0517241,0.037931,0.0068966,0.0068966,0.0137931,0.0310345,0.0275862,0.0413793,0.0241379,0.0413793,0.0310345,0.0413793,0.0275862,0.0344828,0.0137931,0.0275862,0,0.0241379,0.0206897,0.0448276,0.037931,0.0413793,0.0413793,0.062069,0.062069,0.0896552,0.1137931,0.1482759,0.1413793,0.1655172,0.1517241,0.1586207,0.137931,0.1551724,0.1448276,0.1413793,0.137931,0.1448276,0.1448276,0.1586207,0.1482759,0.1482759,0.1241379,0.1275862,0.1344828,0.1586207,0.1586207,0.1827586,0.1793104,0.1724138,0.1689655,0.1758621,0.162069,0.1689655,0.1586207,0.1724138,0.162069,0.1655172,0.1482759,0.1586207,0.1517241,0.1517241,0.1551724,0.1551724,0.1482759,0.1758621,0.1724138,0.1931034,0.1724138,0.1827586,0.1724138,0.1931034,0.1758621,0.1793104,0.1689655,0.1931034,0.1758621,0.1931034,0.1793104,0.1793104,0.3517241,0.6137931,0.8724138,1,0.8482758,0.4758621,0.2344828,0.1551724,0.1206897,0.1172414,0.0965517,0.1,0.0862069,0.0896552,0.0689655,0.0931034,0.0655172,0,0,0,0,0,0,0,0,0,0,0,0,0,0,0,0,0,0,0,0,0,0,0,0,0,0,0,0,0,0,0,0,0,0,0,0,0,0,0,0,0,0,0,0,0,0,0,0,0,0,0,0,0,0,0,0,0,0,0,0,0,0,0,0,0,0,0,0,0,0,0,0,0,0,0,0,0,0,0,0,0,0,0,0,0,0
0.9909809,1,0.9661781,0.9154453,0.9199549,0.9222097,0.8365276,0.6933483,0.4509583,0.3010147,0.3032694,0.2829763,0.2547914,0.2457723,0.2356257,0.2209696,0.2175874,0.2130778,0.205186,0.1916573,0.1848929,0.1826381,0.1758737,0.1713641,0.1668546,0.167982,0.1668546,0.151071,0.1307779,0.1161218,0.0811725,0.0349493,0.0101466,0,0.0011274,0.005637,0.0315671,0.0620068,0.096956,0.1273957,0.1691094,0.2119504,0.2390079,0.2525367,0.2660654,0.2750846,0.2728298,0.2717024,0.2784667,0.2762119,0.2795941,0.2795941,0.2852311,0.2919955,0.2874859,0.2863585,0.2908681,0.2953777,0.2931229,0.2863585,0.2931229,0.2953777,0.2908681,0.2919955,0.2908681,0.3010147,0.2931229,0.2942503,0.2919955,0.3043968,0.2987599,0.3010147,0.2987599,0.3043968,0.3010147,0.2976325,0.3010147,0.307779,0.3055242,0.3032694,0.3043968,0.313416,0.3089064,0.3043968,0.3100338,0.313416,0.313416,0.313416,0.313416,0.3201804,0.3145434,0.3122886,0.3179256,0.3258174,0.3224352,0.3156708,0.313416,0.3201804,0.3213078,0.3179256,0.3179256,0.3258174,0.3224352,0.3258174,0.3269448,0.3258174,0.3269448,0.3258174,0.32469,0.3325817,0.3291996,0.3269448,0.3280722,0.3382187,0.3291996,0.3291996,0.3291996,0.3393461,0.3348365,0.3325817,0.3348365,0.3438557,0.3382187,0.3337091,0.3370913,0.3404735,0.3370913,0.3393461,0.3461105,0.3483653,0.3416009,0.3427283,0.3438557,0.3472379,0.3472379,0.3506201,0.3652762,0.3742954,0.378805,0.4013529,0.421646,0.421646,0.421646,0.4069898,0.3799323,0.3494927,0.3416009,0.3427283,0.3438557,0.3472379,0.3427283,0.3404735,0.3449831,0.3404735,0.3337091,0.4092447,0.6245772,0.8252537,0.7993236,0.5174747,0.3089064,0.3889515,0.3934611,0.3494927,0.3393461,0.3449831,0.3427283,0.3314543,0.3382187,0.3393461,0.3382187,0.3348365,0.3337091,0.3337091,0.3348365,0.3291996,0.3337091,0.3416009,0.3325817,0,0,0,0,0,0,0,0,2
1,1,0.9682726,0.9306698,0.9271445,0.9012926,0.8061104,0.6439483,0.3619272,0.2514689,0.2679201,0.2432432,0.2126909,0.2032903,0.1974148,0.1891892,0.1750881,0.1621622,0.1562867,0.1527615,0.1398355,0.1222092,0.1128085,0.1010576,0.0822562,0.0575793,0.0458284,0.0305523,0.0141011,0.0058754,0.0023502,0,0.0094007,0.0293772,0.0446533,0.0646298,0.0881316,0.0881316,0.1081081,0.146886,0.1750881,0.2044653,0.2279671,0.2408931,0.2420682,0.2385429,0.2479436,0.2491187,0.2444183,0.2455934,0.2491187,0.253819,0.2479436,0.2502938,0.2549941,0.2573443,0.2526439,0.2549941,0.2608696,0.2655699,0.2632197,0.2561692,0.266745,0.2679201,0.2679201,0.2643948,0.2702703,0.2714454,0.2690952,0.2726204,0.2690952,0.2773208,0.2737955,0.2690952,0.2749706,0.2784959,0.2761457,0.2726204,0.2726204,0.2784959,0.2784959,0.2749706,0.279671,0.279671,0.279671,0.2726204,0.2784959,0.2820212,0.2784959,0.2761457,0.2784959,0.2843713,0.2773208,0.2784959,0.279671,0.2867215,0.2831962,0.2784959,0.2808461,0.2902468,0.2878966,0,0,0,0,0,0,0,0,0,0,0,0,0,0,0,0,0,0,0,0,0,0,0,0,0,0,0,0,0,0,0,0,0,0,0,0,0,0,0,0,0,0,0,0,0,0,0,0,0,0,0,0,0,0,0,0,0,0,0,0,0,0,0,0,0,0,0,0,0,0,0,0,0,0,0,0,0,0,0,0,0,0,0,0,0,0,2
0.7991719,0.8819876,0.8592132,0.8198758,0.7743271,0.7370601,0.7494824,0.6687371,0.4285714,0.2587992,0.1552795,0.1345756,0.0973085,0.0890269,0.0641822,0.0600414,0.0455487,0.0538302,0.0289855,0.0372671,0.0165631,0.0186335,0,0.0124224,0.0186335,0.0269151,0.0207039,0.0455487,0.057971,0.1055901,0.1180124,0.1449275,0.1532091,0.1904762,0.1863354,0.2049689,0.1925466,0.2028985,0.1966874,0.2049689,0.1966874,0.1966874,0.1925466,0.2132505,0.2049689,0.2132505,0.2049689,0.2153209,0.1987578,0.2236025,0.2111801,0.2318841,0.2132505,0.2277433,0.2194617,0.2401656,0.2256729,0.2380952,0.2236025,0.2360248,0.2298137,0.2484472,0.2277433,0.2401656,0.2277433,0.2360248,0.2298137,0.2463768,0.2318841,0.2463768,0.2256729,0.242236,0.2380952,0.2587992,0.252588,0.2795031,0.2795031,0.3167702,0.3084886,0.3064182,0.2774327,0.2795031,0.2567288,0.2587992,0.2339544,0.252588,0.2380952,0.2505176,0.2484472,0.2608696,0.2380952,0.2919255,0.4865424,0.8716356,1,0.5652174,0.2608696,0.252588,0.2650104,0.2608696,0.2443064,0.2546584,0.242236,0.2587992,0.2567288,0.2712215,0.2546584,0,0,0,0,0,0,0,0,0,0,0,0,0,0,0,0,0,0,0,0,0,0,0,0,0,0,0,0,0,0,0,0,0,0,0,0,0,0,0,0,0,0,0,0,0,0,0,0,0,0,0,0,0,0,0,0,0,0,0,0,0,0,0,0,0,0,0,0,0,0,0,0,0,0,0,0,0,0,0,0,2
0.9124088,0.7262774,0.4379562,0.1350365,0,0,0.0510949,0.1021898,0.0912409,0.1094891,0.0985401,0.1058394,0.0875912,0.120438,0.1058394,0.120438,0.1094891,0.1459854,0.1386861,0.1824818,0.1678832,0.2080292,0.2262774,0.2664233,0.2737226,0.3321168,0.3357664,0.3795621,0.4124088,0.4708029,0.4708029,0.5072992,0.4854015,0.4525547,0.3795621,0.3467153,0.2956204,0.2883212,0.2481752,0.2554744,0.2262774,0.2372263,0.2226277,0.2372263,0.2262774,0.2518248,0.2408759,0.2627737,0.2591241,0.2591241,0.2627737,0.2846715,0.2591241,0.2883212,0.2810219,0.3065693,0.2883212,0.3065693,0.2919708,0.3138686,0.3065693,0.3321168,0.3138686,0.3211679,0.3138686,0.3248175,0.3175182,0.3394161,0.3284672,0.3649635,0.3576642,0.3905109,0.3649635,0.3868613,0.350365,0.3613139,0.3357664,0.3321168,0.3175182,0.3211679,0.2919708,0.2992701,0.2883212,0.2956204,0.2737226,0.2956204,0.2773723,0.2810219,0.2773723,0.2919708,0.2773723,0.3029197,0.2664233,0.2992701,0.3175182,0.3832117,0.4927007,0.6715329,0.6423358,0.5474452,0.649635,0.9562044,1,0.8029197,0.6021898,0.3576642,0.149635,0.1569343,0.1861314,0.2189781,0.1970803,0.2226277,0.2153285,0.2116788,0.1970803,0.2335766,0.2189781,0.2372263,0.2372263,0.2664233,0.2627737,0.3029197,0,0,0,0,0,0,0,0,0,0,0,0,0,0,0,0,0,0,0,0,0,0,0,0,0,0,0,0,0,0,0,0,0,0,0,0,0,0,0,0,0,0,0,0,0,0,0,0,0,0,0,0,0,0,0,0,0,0,0,0,0,0,0,0,0,0
0,0.1578947,0.1866029,0.3157895,0.3157895,0.3253588,0.3110048,0.3157895,0.2822967,0.3205742,0.291866,0.3444976,0.2870813,0.3062201,0.2822967,0.3253588,0.3014354,0.3205742,0.3349282,0.3492823,0.3732058,0.3875598,0.3397129,0.3827751,0.4162679,0.430622,0.4497608,0.4736842,0.4736842,0.5119617,0.5071771,0.5358852,0.5263158,0.5598086,0.5358852,0.5741627,0.5406699,0.5454546,0.5406699,0.5406699,0.5406699,0.5358852,0.5119617,0.5215311,0.5071771,0.5263158,0.4976076,0.4784689,0.4641148,0.4976076,0.4545455,0.4545455,0.4114833,0.4545455,0.4401914,0.4497608,0.430622,0.4497608,0.4162679,0.4449761,0.4114833,0.4114833,0.4497608,0.4449761,0.4497608,0.5023924,0.4736842,0.4784689,0.4784689,0.4880383,0.5071771,0.4736842,0.5358852,0.5645933,0.5933014,0.5980861,0.6507177,0.6985646,0.722488,0.7368421,0.6985646,0.6076555,0.4688995,0.4449761,0.4449761,0.4784689,0.4449761,0.4736842,0.4354067,0.492823,0.430622,0.4641148,0.4736842,0.5023924,0.4545455,0.4449761,0.4449761,0.6315789,0.8803828,0.861244,0.937799,0.9521531,1,0.9712918,0.6315789,0.3157895,0.0526316,0.2057416,0.2631579,0.4114833,0.3971292,0.3971292,0.4066986,0.4162679,0.4162679,0.430622,0.4162679,0.4019139,0.430622,0.4210526,0.4019139,0.4401914,0.4401914,0.4114833,0.4401914,0.492823,0.4784689,0.4641148,0,0,0,0,0,0,0,0,0,0,0,0,0,0,0,0,0,0,0,0,0,0,0,0,0,0,0,0,0,0,0,0,0,0,0,0,0,0,0,0,0,0,0,0,0,0,0,0,0,0,0,0,0,0,0,0,0,0,0,0
1,0.6263345,0.0213523,0.1494662,0.1245552,0.1530249,0.13879,0.1459075,0.1281139,0.13879,0.13879,0.1565836,0.1565836,0.1494662,0.13879,0.1565836,0.13879,0.1494662,0.1459075,0.1494662,0.1423488,0.1494662,0.1530249,0.1637011,0.1530249,0.1565836,0.1494662,0.1565836,0.13879,0.1459075,0.1459075,0.1530249,0.1459075,0.1743772,0.1672598,0.1921708,0.1992882,0.2099644,0.2135231,0.2206406,0.2064057,0.2135231,0.2064057,0.2206406,0.2170818,0.2241993,0.202847,0.2099644,0.1886121,0.1850534,0.1850534,0.1814947,0.1814947,0.1779359,0.1708185,0.1779359,0.1743772,0.1672598,0.1530249,0.1708185,0.1601423,0.1814947,0.1708185,0.1708185,0.1601423,0.1779359,0.1637011,0.1814947,0.202847,0.2135231,0.2170818,0.2384342,0.2348754,0.2348754,0.2384342,0.2597865,0.1921708,0.1743772,0.1494662,0.1565836,0.1494662,0.1281139,0.1209964,0.13879,0.1316726,0.1423488,0.1352313,0.0996441,0.0427046,0,0.2669039,0.8185053,0.911032,0.1957295,0.024911,0.0854093,0.0747331,0.0960854,0.0818505,0.0782918,0.0854093,0.088968,0.0782918,0.0925267,0.0818505,0.0925267,0.0782918,0.0925267,0.0676157,0.0818505,0,0,0,0,0,0,0,0,0,0,0,0,0,0,0,0,0,0,0,0,0,0,0,0,0,0,0,0,0,0,0,0,0,0,0,0,0,0,0,0,0,0,0,0,0,0,0,0,0,0,0,0,0,0,0,0,0,0,0,0,0,0,0,0,0,0,0,0,0,0,0,0,0,0,0,0,0,0
0,0.1094675,0.2544379,0.387574,0.4881657,0.5591716,0.6923077,0.7485207,0.7544379,0.7396449,0.7603551,0.7544379,0.7692308,0.7633136,0.7869822,0.7810651,0.7840236,0.7899408,0.8136095,0.8017752,0.8313609,0.8313609,0.8491125,0.8461539,0.8668639,0.8757396,0.8934911,0.8934911,0.9230769,0.9201183,0.9349113,0.9408284,0.9556213,0.9585799,0.9733728,0.9733728,0.9792899,0.9615384,0.9674556,0.9526627,0.9615384,0.9467456,0.9497042,0.9230769,0.9230769,0.9023669,0.9023669,0.887574,0.8934911,0.8786982,0.8757396,0.852071,0.8698225,0.8579882,0.8461539,0.8402367,0.8431953,0.8047338,0.8165681,0.8017752,0.795858,0.7899408,0.795858,0.7721894,0.7751479,0.7662722,0.7751479,0.7573965,0.7751479,0.7603551,0.7692308,0.7603551,0.7662722,0.7603551,0.7751479,0.7603551,0.7869822,0.7899408,0.8017752,0.7869822,0.7928994,0.7840236,0.7899408,0.7514793,0.7810651,0.7662722,0.7840236,0.7751479,0.7869822,0.7721894,0.7751479,0.7692308,0.7869822,0.7721894,0.7899408,0.7899408,0.8017752,0.7869822,0.7988166,0.7899408,0.8076923,0.8106509,0.8195266,0.8254438,0.8165681,0.7692308,0.7159764,0.6065089,0.535503,0.2721893,0.1449704,0.2100592,0.3668639,0.5059171,0.6242604,0.6952662,0.8136095,0.8550296,0.8757396,0.8816568,0.8934911,0.9023669,0.908284,0.8994083,0.9142012,0.9319527,0.9408284,0.9408284,0.9704142,0.964497,0.9792899,0.9852071,1,0,0,0,0,0,0,0,0,0,0,0,0,0,0,0,0,0,0,0,0,0,0,0,0,0,0,0,0,0,0,0,0,0,0,0,0,0,0,0,0,0,0,0,0,0,0,0,0,0,0,0,0,0,0,0
1,0.8490879,0.212272,0,0.225539,0.2437811,0.252073,0.2669984,0.2570481,0.2454395,0.2620232,0.2703151,0.2703151,0.2719735,0.2802653,0.2935323,0.291874,0.2885572,0.2985075,0.3101161,0.305141,0.3134328,0.3217247,0.3233831,0.3349917,0.3383085,0.3432836,0.3532338,0.3548922,0.3532338,0.3615257,0.3648424,0.3681592,0.3698176,0.3847429,0.4063018,0.4013267,0.3880597,0.3747927,0.3648424,0.3466003,0.3283582,0.3167496,0.3167496,0.305141,0.2902156,0.291874,0.2968491,0.2951907,0.2951907,0.2968491,0.3117745,0.3101161,0.3134328,0.3167496,0.331675,0.3233831,0.3200663,0.3250415,0.3283582,0.3200663,0.3167496,0.3150912,0.318408,0.3067993,0.2985075,0.2968491,0.3101161,0.3018242,0.2885572,0.2935323,0.291874,0.291874,0.2852405,0.2868989,0.2902156,0.2852405,0.2736318,0.278607,0.2835821,0.2819237,0.2769486,0.2802653,0.2852405,0.278607,0.2736318,0.2819237,0.2868989,0.2802653,0.278607,0.2852405,0.2868989,0.291874,0.2951907,0.3067993,0.3134328,0.3283582,0.318408,0.3001658,0.3001658,0.3034826,0.2835821,0.2802653,0.2885572,0.291874,0.305141,0.358209,0.6268657,0.9883914,0.8341625,0.1973466,0.0215589,0.2371476,0.2470978,0.2537313,0.2686567,0.2587065,0.2537313,0.2570481,0.2703151,0.2736318,0.2769486,0.2802653,0.2885572,0.2935323,0.291874,0.3034826,0.3134328,0.318408,0.3233831,0,0,0,0,0,0,0,0,0,0,0,0,0,0,0,0,0,0,0,0,0,0,0,0,0,0,0,0,0,0,0,0,0,0,0,0,0,0,0,0,0,0,0,0,0,0,0,0,0,0,0,0,0,0,0,0,0,0
0.8438662,0.4758364,0.5167286,0.5539033,0.542751,0.535316,0.5130112,0.472119,0.3271376,0.2230483,0.0334572,0.0743494,0.063197,0.0557621,0.0557621,0.0892193,0.0817844,0.0855019,0.0520446,0.0669145,0.0446097,0.070632,0.0557621,0.0594796,0.0446097,0.0408922,0.0185874,0.0260223,0.0037175,0.0185874,0,0.0185874,0.0148699,0.0371747,0.0520446,0.0817844,0.0966543,0.133829,0.1598513,0.1858736,0.2081784,0.2379182,0.2527881,0.2565056,0.2565056,0.2602231,0.2490706,0.2416357,0.2193309,0.2193309,0.2007435,0.2007435,0.1858736,0.1895911,0.1821561,0.1858736,0.1784387,0.1933085,0.1784387,0.1821561,0.1784387,0.1821561,0.1710037,0.1747212,0.1635688,0.1710037,0.1561338,0.1710037,0.1486989,0.1561338,0.1486989,0.1486989,0.1412639,0.1412639,0.1412639,0.1449814,0.1375465,0.1561338,0.133829,0.1561338,0.1301115,0.1449814,0.1449814,0.1412639,0.133829,0.1486989,0.1412639,0.1449814,0.1375465,0.1486989,0.1561338,0.1747212,0.2156134,0.4869888,1,0.4572491,0.5055762,0.5315985,0.527881,0.527881,0.5241635,0.5018587,0.3680297,0.2490706,0.0855019,0.1561338,0.1152416,0.0817844,0.0743494,0.1003717,0.0929368,0.1003717,0.070632,0,0,0,0,0,0,0,0,0,0,0,0,0,0,0,0,0,0,0,0,0,0,0,0,0,0,0,0,0,0,0,0,0,0,0,0,0,0,0,0,0,0,0,0,0,0,0,0,0,0,0,0,0,0,0,0,0,0,0,0,0,0,0,0,0,0,0,0,0,0,0,0,0,0,4
0,0.0705596,0.2141119,0.3114355,0.4014598,0.4720195,0.5620438,0.5912409,0.6131387,0.647202,0.6569343,0.6350365,0.649635,0.6861314,0.6739659,0.6836983,0.703163,0.7323601,0.7372262,0.7250608,0.756691,0.8248175,0.7591241,0.7883212,0.8613139,0.8807786,0.8272506,0.836983,0.8832117,0.9002433,0.8588808,0.8759124,0.9002433,0.8832117,0.8832117,0.890511,0.8832117,0.8734793,0.8345499,0.8515815,0.8442822,0.8345499,0.8394161,0.783455,0.7883212,0.7712895,0.8199514,0.8126521,0.7518248,0.7445256,0.810219,0.7445256,0.7128954,0.7080292,0.703163,0.7250608,0.7128954,0.7372262,0.6958637,0.6909975,0.7347932,0.7347932,0.6836983,0.7226278,0.7493917,0.6861314,0.6739659,0.7153285,0.7177616,0.7347932,0.7469586,0.7396594,0.7177616,0.7518248,0.7591241,0.729927,0.7396594,0.7737226,0.8077859,0.7858881,0.7737226,0.7688565,0.7688565,0.8029197,0.8029197,0.7956204,0.8053528,0.7007299,0.5693431,0.4720195,0.2238443,0.2262774,0.3600973,0.5206813,0.5620438,0.6788321,0.7493917,0.8418491,0.8880779,0.9221411,0.8880779,0.9002433,0.9586375,0.9245742,0.9051095,0.9610705,1,0.9878346,0,0,0,0,0,0,0,0,0,0,0,0,0,0,0,0,0,0,0,0,0,0,0,0,0,0,0,0,0,0,0,0,0,0,0,0,0,0,0,0,0,0,0,0,0,0,0,0,0,0,0,0,0,0,0,0,0,0,0,0,0,0,0,0,0,0,0,0,0,0,0,0,0,0,0,0,0,0,0,0
0.9753623,0.7855073,0.3782609,0.1014493,0,0.0869565,0.1666667,0.1594203,0.1463768,0.1333333,0.1333333,0.1362319,0.1217391,0.126087,0.1362319,0.1478261,0.1565217,0.1623188,0.1768116,0.2072464,0.2173913,0.2347826,0.2637681,0.2826087,0.3014493,0.3289855,0.3492754,0.3811594,0.3985507,0.4086956,0.4231884,0.4347826,0.4347826,0.4318841,0.4115942,0.4057971,0.384058,0.3478261,0.3333333,0.3072464,0.2927536,0.2739131,0.2521739,0.2507246,0.2478261,0.2434783,0.2536232,0.257971,0.2724638,0.2971014,0.3173913,0.342029,0.3463768,0.326087,0.2811594,0.242029,0.2333333,0.2304348,0.2275362,0.2347826,0.2304348,0.2289855,0.2333333,0.2202899,0.2188406,0.3652174,0.6942029,1,0.9246377,0.5797101,0.2217391,0.026087,0.1130435,0.1782609,0.1478261,0.1376812,0.1362319,0.1231884,0.1144928,0.1130435,0.115942,0,0,0,0,0,0,0,0,0,0,0,0,0,0,0,0,0,0,0,0,0,0,0,0,0,0,0,0,0,0,0,0,0,0,0,0,0,0,0,0,0,0,0,0,0,0,0,0,0,0,0,0,0,0,0,0,0,0,0,0,0,0,0,0,0,0,0,0,0,0,0,0,0,0,0,0,0,0,0,0,0,0,0,0,0,0,0,0,0,0,0,0,0,0,0,0,0,0,0,0,0,0,0,0,0,0,0
0.8123953,0.758794,0.6700168,0.5896147,0.4556114,0.3400335,0.2227806,0.1440536,0.080402,0.0770519,0.1273032,0.2194305,0.3232831,0.4087102,0.438861,0.5259631,0.5896147,0.6231156,0.6365159,0.6566164,0.6532663,0.6666667,0.6616415,0.6649916,0.6649916,0.6767169,0.6783919,0.6917923,0.6968174,0.7118928,0.7152429,0.7303182,0.7370184,0.7520938,0.7671692,0.7939699,0.8040201,0.8308208,0.8341709,0.8509213,0.8442211,0.8559464,0.842546,0.8324958,0.8090453,0.7872697,0.7487437,0.7185929,0.6783919,0.6515913,0.6164154,0.6013401,0.5778894,0.5778894,0.5644891,0.5695142,0.557789,0.557789,0.5410385,0.557789,0.559464,0.5644891,0.561139,0.559464,0.5477387,0.559464,0.5494137,0.557789,0.5477387,0.5561139,0.5427136,0.5443886,0.5393635,0.5410385,0.5326633,0.5376884,0.5326633,0.5443886,0.5360134,0.5393635,0.5242881,0.5326633,0.5309883,0.5393635,0.5242881,0.5309883,0.5293132,0.5343384,0.520938,0.5259631,0.5242881,0.5309883,0.5276382,0.5259631,0.5259631,0.5427136,0.5443886,0.5443886,0.5376884,0.5544389,0.557789,0.5762144,0.6331658,1,0.9564489,0.8542714,0.7788945,0.6884422,0.5745394,0.4606365,0.3333333,0.2043551,0.1122278,0.0586265,0.0067002,0,0.0134003,0.0720268,0.160804,0.2763819,0.3115578,0.3551089,0.4036851,0.4673367,0.5309883,0.5896147,0.6214405,0,0,0,0,0,0,0,0,0,0,0,0,0,0,0,0,0,0,0,0,0,0,0,0,0,0,0,0,0,0,0,0,0,0,0,0,0,0,0,0,0,0,0,0,0,0,0,0,0,0,0,0,0,0,0,0,0,0,0,0,4
1,0.9544073,0.6975684,0.3844985,0.2416413,0.2553191,0.3100304,0.3343465,0.3951368,0.4665653,0.4772036,0.4878419,0.5091186,0.5075988,0.5106383,0.506079,0.5136778,0.5288754,0.5212766,0.5273556,0.5091186,0.4908815,0.5091186,0.5167173,0.5288754,0.5243161,0.5212766,0.5531915,0.5805471,0.5547112,0.5744681,0.6018237,0.5835866,0.5896657,0.5927052,0.5683891,0.5699088,0.5729483,0.5638298,0.5547112,0.56231,0.5927052,0.6322188,0.6854103,0.7598784,0.8176292,0.6322188,0.275076,0.0866261,0.0197568,0,0.0151976,0.1170213,0.1945289,0.2386018,0.3206687,0.381459,0.4513678,0.5699088,0.6474164,0.6550152,0.6534954,0.6869301,0.7066869,0.7066869,0.7234042,0.7294833,0.7477204,0,0,0,0,0,0,0,0,0,0,0,0,0,0,0,0,0,0,0,0,0,0,0,0,0,0,0,0,0,0,0,0,0,0,0,0,0,0,0,0,0,0,0,0,0,0,0,0,0,0,0,0,0,0,0,0,0,0,0,0,0,0,0,0,0,0,0,0,0,0,0,0,0,0,0,0,0,0,0,0,0,0,0,0,0,0,0,0,0,0,0,0,0,0,0,0,0,0,0,0,0,0,0,0,0,0,0,0,0,0,0,0,0,0,0,0,0,0,0,2
0.8627049,0.7684426,0.3811475,0.0891393,0.2356557,0.2561475,0.2090164,0.210041,0.2131148,0.2069672,0.2090164,0.2182377,0.2192623,0.2213115,0.2233607,0.2356557,0.2387295,0.2366803,0.2428279,0.2581967,0.2684426,0.2715164,0.2797131,0.2909836,0.307377,0.3217213,0.3319672,0.3473361,0.3555328,0.3493852,0.3493852,0.3473361,0.3309426,0.3053279,0.2807377,0.2684426,0.2581967,0.2407787,0.2315574,0.2315574,0.2315574,0.2233607,0.2284836,0.2315574,0.2305328,0.2305328,0.2284836,0.2428279,0.2479508,0.2459016,0.2561475,0.2858607,0.3288935,0.3811475,0.4385246,0.5071721,0.5727459,0.664959,0.7622951,0.8309426,0.8586066,0.9016393,0.9743853,1,0.8483607,0.454918,0.1526639,0.1823771,0.1485656,0.1219262,0.1321721,0.125,0.1096312,0.0963115,0.085041,0.079918,0.0747951,0.0594262,0.045082,0.0430328,0.0317623,0.017418,0.0061475,0,0.0071721,0.0081967,0,0,0,0,0,0,0,0,0,0,0,0,0,0,0,0,0,0,0,0,0,0,0,0,0,0,0,0,0,0,0,0,0,0,0,0,0,0,0,0,0,0,0,0,0,0,0,0,0,0,0,0,0,0,0,0,0,0,0,0,0,0,0,0,0,0,0,0,0,0,0,0,0,0,0,0,0,0,0,0,0,0,0,0,0,0,0,0,0,0,0,0,0,0,0,0,0,0,0,0,0,0
0.9744027,1,0.5955631,0.2201365,0.2013652,0.2542662,0.2542662,0.2474403,0.2491468,0.2474403,0.2372014,0.2372014,0.2406143,0.2389078,0.2303754,0.2269625,0.225256,0.2201365,0.2081911,0.2064846,0.2081911,0.1979522,0.1894198,0.1860068,0.1894198,0.1825939,0.1757679,0.1774744,0.1860068,0.1911263,0.1894198,0.1962457,0.2201365,0.2372014,0.2491468,0.2627986,0.2798635,0.2935154,0.2952218,0.2969283,0.3071672,0.3071672,0.3003413,0.2952218,0.3020478,0.3020478,0.2918089,0.2849829,0.2952218,0.2866894,0.28157,0.2798635,0.2849829,0.2901024,0.2901024,0.2832764,0.2918089,0.3498293,0.4761092,0.5682594,0.5750853,0.447099,0.3225256,0.1962457,0.0494881,0,0.059727,0.109215,0.1365188,0.1740614,0.2047781,0.2337884,0.2627986,0.2696246,0.2645051,0.2662116,0.2696246,0.2730376,0.2645051,0,0,0,0,0,0,0,0,0,0,0,0,0,0,0,0,0,0,0,0,0,0,0,0,0,0,0,0,0,0,0,0,0,0,0,0,0,0,0,0,0,0,0,0,0,0,0,0,0,0,0,0,0,0,0,0,0,0,0,0,0,0,0,0,0,0,0,0,0,0,0,0,0,0,0,0,0,0,0,0,0,0,0,0,0,0,0,0,0,0,0,0,0,0,0,0,0,0,0,0,0,0,0,0,0,0,0,0,0
0.2839644,0.3886414,0.5489978,0.7149221,0.8674833,0.9576837,1,0.9944321,0.9510022,0.9298441,0.9265034,0.8530067,0.6737194,0.4331849,0.2383074,0.1503341,0.1481069,0.1280624,0.1080178,0.0979955,0.0824053,0.0657016,0.0478842,0.0378619,0.0289532,0.0077951,0,0.0044543,0.0022272,0.0055679,0.018931,0.0434298,0.077951,0.096882,0.123608,0.169265,0.2060134,0.2449889,0.2817372,0.3095768,0.3340757,0.3351893,0.3407573,0.3463252,0.3374165,0.330735,0.3207127,0.3095768,0.3028953,0.285078,0.2806236,0.2884187,0.285078,0.285078,0.2962138,0.2973274,0.3051225,0.3184855,0.3385301,0.3585746,0.3663697,0.3652561,0.3530067,0.3195991,0.3017817,0.2917595,0.2939866,0.3051225,0.3017817,0.3006682,0.2995546,0.3051225,0.3006682,0.3173719,0.4855234,0.7717149,0.9565701,0.830735,0.5211582,0.2516704,0.1804009,0.2538975,0.2728285,0.2583519,0.2494432,0.2505568,0.2427617,0.2405345,0.2449889,0,0,0,0,0,0,0,0,0,0,0,0,0,0,0,0,0,0,0,0,0,0,0,0,0,0,0,0,0,0,0,0,0,0,0,0,0,0,0,0,0,0,0,0,0,0,0,0,0,0,0,0,0,0,0,0,0,0,0,0,0,0,0,0,0,0,0,0,0,0,0,0,0,0,0,0,0,0,0,0,0,0,0,0,0,0,0,0,0,0,0,0,0,0,0,0,0,0,2
1,0.7255193,0.4198813,0.1602374,0.0830861,0.0949555,0.0875371,0.0593472,0.0459941,0.0474777,0.0326409,0.037092,0.0281899,0.0207715,0.0281899,0.0281899,0.0296736,0.0474777,0.0548961,0.0667656,0.0890208,0.115727,0.1513353,0.1750742,0.2047478,0.2418398,0.272997,0.305638,0.3160237,0.3293768,0.3486647,0.3367952,0.3308605,0.3338279,0.3219585,0.310089,0.2863502,0.2655786,0.2537092,0.2225519,0.2091988,0.2062315,0.2047478,0.1988131,0.2091988,0.2344214,0.2715133,0.2789317,0.2789317,0.2848665,0.2388724,0.189911,0.1706231,0.1721068,0.1824926,0.1735905,0.1706231,0.1795252,0.1780415,0.1706231,0.1632047,0.2181009,0.4703264,0.8234422,0.8931751,0.5623145,0.227003,0.0267062,0,0.0934718,0.1142433,0.0890208,0.074184,0.078635,0.0771513,0.0667656,0.0652819,0,0,0,0,0,0,0,0,0,0,0,0,0,0,0,0,0,0,0,0,0,0,0,0,0,0,0,0,0,0,0,0,0,0,0,0,0,0,0,0,0,0,0,0,0,0,0,0,0,0,0,0,0,0,0,0,0,0,0,0,0,0,0,0,0,0,0,0,0,0,0,0,0,0,0,0,0,0,0,0,0,0,0,0,0,0,0,0,0,0,0,0,0,0,0,0,0,0,0,0,0,0,0,0,0,0,0,0,0,0,3
0.7986111,0.7413194,0.796875,0.5798611,0.5920139,0.5434028,0.5173611,0.4722222,0.4635417,0.4201389,0.3993056,0.3680556,0.3559028,0.3246528,0.3125,0.2934028,0.2847222,0.265625,0.2673611,0.2465278,0.2465278,0.2239583,0.21875,0.203125,0.1979167,0.1753472,0.1614583,0.1302083,0.1145833,0.0711806,0.0555556,0.0190972,0.0138889,0,0.0034722,0.0104167,0.0399306,0.0659722,0.1163194,0.140625,0.1770833,0.1927083,0.2239583,0.2309028,0.2517361,0.2517361,0.2569444,0.25,0.2708333,0.265625,0.2760417,0.2690972,0.2916667,0.2934028,0.3385417,0.4201389,0.5295139,0.59375,0.6736111,0.7309028,0.8263889,0.9149306,0.9670139,1,0.9548611,0.6111111,0.3229167,0.2552083,0.2135417,0.15625,0.1458333,0.125,0,0,0,0,0,0,0,0,0,0,0,0,0,0,0,0,0,0,0,0,0,0,0,0,0,0,0,0,0,0,0,0,0,0,0,0,0,0,0,0,0,0,0,0,0,0,0,0,0,0,0,0,0,0,0,0,0,0,0,0,0,0,0,0,0,0,0,0,0,0,0,0,0,0,0,0,0,0,0,0,0,0,0,0,0,0,0,0,0,0,0,0,0,0,0,0,0,0,0,0,0,0,0,0,0,0,0,0,0,0,0,0,0,0,0,4
1,0.9677892,0.8125915,0.5373353,0.3645681,0.3352855,0.3221084,0.2913616,0.2650073,0.2518302,0.2415813,0.2474378,0.250366,0.2357247,0.2284041,0.2240117,0.2196193,0.2035139,0.1888726,0.1756955,0.1581259,0.1346999,0.102489,0.0863836,0.0629575,0.0380673,0.0175695,0.0102489,0.0058565,0,0.0058565,0.0424597,0.0746706,0.1127379,0.1537335,0.2020498,0.2474378,0.2767203,0.307467,0.3308931,0.3484627,0.3543192,0.3572474,0.3674963,0.363104,0.3601757,0.3528551,0.3557833,0.3587116,0.3484627,0.3499268,0.3513909,0.3499268,0.3513909,0.3660322,0.3792094,0.3879941,0.3909224,0.38653,0.3923865,0.3923865,0.38653,0.3821376,0.38653,0.3762811,0.3718887,0.3645681,0.3660322,0.3645681,0.3557833,0.3484627,0.3601757,0.3718887,0.3718887,0.3777452,0.3879941,0.3938507,0.3923865,0.3894583,0.3953148,0.3894583,0.3850659,0.3821376,0.3850659,0.3836018,0.374817,0.3557833,0.3792094,0.5241581,0.7540264,0.9516838,0.9751098,0.7964861,0.4465593,0.3426062,0.3718887,0.3718887,0.3601757,0.3601757,0.3572474,0.3469985,0.3367496,0.329429,0.3279649,0.3235725,0.3133236,0.2986823,0.2928258,0.2869692,0,0,0,0,0,0,0,0,0,0,0,0,0,0,0,0,0,0,0,0,0,0,0,0,0,0,0,0,0,0,0,0,0,0,0,0,0,0,0,0,0,0,0,0,0,0,0,0,0,0,0,0,0,0,0,0,0,0,0,0,0,0,0,0,0,0,0,0,0,0,0,0,0,0,0,0,0,0,2
1,0.8076923,0.4353846,0.1138462,0,0.1015385,0.1292308,0.0969231,0.0876923,0.0876923,0.0738462,0.0538462,0.0584615,0.0553846,0.0523077,0.0569231,0.0630769,0.0769231,0.0938462,0.1076923,0.1338461,0.1707692,0.2030769,0.2415385,0.2707692,0.3030769,0.3492308,0.3707692,0.4046154,0.42,0.4169231,0.42,0.4169231,0.4061539,0.3938462,0.3661538,0.3538462,0.3415385,0.3123077,0.2892308,0.2707692,0.2584615,0.2492308,0.2307692,0.2307692,0.2446154,0.2676923,0.2907692,0.3107692,0.3215384,0.3246154,0.2830769,0.2323077,0.2061538,0.2015385,0.1953846,0.2015385,0.2015385,0.1953846,0.1984615,0.1907692,0.1861538,0.1907692,0.3246154,0.6261538,0.9338462,0.8292308,0.4246154,0.0815385,0.0030769,0.1153846,0.1415385,0.1092308,0.1061538,0.0984615,0.0938462,0.08,0.0861538,0.0846154,0,0,0,0,0,0,0,0,0,0,0,0,0,0,0,0,0,0,0,0,0,0,0,0,0,0,0,0,0,0,0,0,0,0,0,0,0,0,0,0,0,0,0,0,0,0,0,0,0,0,0,0,0,0,0,0,0,0,0,0,0,0,0,0,0,0,0,0,0,0,0,0,0,0,0,0,0,0,0,0,0,0,0,0,0,0,0,0,0,0,0,0,0,0,0,0,0,0,0,0,0,0,0,0,0,0,0,0,3
0.9839743,0.8910257,0.5448718,0.2275641,0.1410256,0.1185897,0.0929487,0.0448718,0.0544872,0.0288462,0.0416667,0.0192308,0.0352564,0.0128205,0.0320513,0.025641,0.0416667,0.0288462,0.0608974,0.0480769,0.0608974,0.0641026,0.0897436,0.0897436,0.1153846,0.1217949,0.1634615,0.1730769,0.198718,0.2083333,0.2532051,0.2628205,0.2980769,0.2852564,0.2948718,0.2628205,0.2403846,0.1826923,0.1666667,0.1089744,0.0961538,0.0576923,0.0608974,0.0320513,0.0480769,0.0224359,0.0416667,0.0224359,0.0416667,0.025641,0.0416667,0.025641,0.0448718,0.025641,0.0384615,0.025641,0.0480769,0.0224359,0.0352564,0.0192308,0.0288462,0.0224359,0.0352564,0.0128205,0.0352564,0.0128205,0.0224359,0.0128205,0.0160256,0.0032051,0.0064103,0.0032051,0.0224359,0.0032051,0.0192308,0,0.0160256,0.0064103,0.0224359,0.0096154,0.0224359,0.0160256,0.0320513,0.0064103,0.0352564,0.0192308,0.0352564,0.0160256,0.0384615,0.0224359,0.0448718,0.025641,0.0352564,0.0128205,0.0320513,0.0224359,0.0384615,0.0224359,0.025641,0.0160256,0.0320513,0.0224359,0.0448718,0.0224359,0.0416667,0.0160256,0.0448718,0.0320513,0.0448718,0.025641,0.0416667,0.0192308,0.0448718,0.0384615,0.0544872,0.0448718,0.0544872,0.0416667,0.0576923,0.0512821,0.0608974,0.0512821,0.1025641,0.099359,0.1121795,0.099359,0.1057692,0.0769231,0.0833333,0.0576923,0.073718,0.0576923,0.0705128,0.0576923,0.0801282,0.0705128,0.1057692,0.1282051,0.2147436,0.3814103,0.6474359,0.8589743,1,0.650641,0.3044872,0.0769231,0.1089744,0.0801282,0.0576923,0.0224359,0.0384615,0.0160256,0.0320513,0.0128205,0.025641,0.0160256,0.0224359,0.0192308,0.0384615,0.0192308,0.0448718,0.0384615,0.073718,0.0608974,0.0769231,0.0705128,0.099359,0.1025641,0.125,0.1378205,0.1666667,0,0,0,0,0,0,0,0,0,0,0,0,0,0,0,0,0
1,0.8577127,0.5890958,0.287234,0.1702128,0.1901596,0.1781915,0.162234,0.1555851,0.1489362,0.1449468,0.150266,0.1529255,0.1449468,0.1476064,0.1635638,0.1675532,0.1755319,0.1914894,0.2167553,0.2420213,0.2526596,0.2952128,0.3364362,0.3590426,0.393617,0.4082447,0.4388298,0.4534574,0.4547872,0.4707447,0.4720745,0.4507979,0.4295213,0.4215426,0.4095745,0.3829787,0.3457447,0.3284574,0.3018617,0.2726064,0.268617,0.2566489,0.2579787,0.2646277,0.2526596,0.2726064,0.3125,0.331117,0.3404255,0.3444149,0.3351064,0.3018617,0.2513298,0.2393617,0.2420213,0.2300532,0.2353723,0.2380319,0.2367021,0.2393617,0.231383,0.2194149,0.2579787,0.4388298,0.7300532,0.9095744,0.7207447,0.356383,0.0837766,0,0.0917553,0.1369681,0.1183511,0.1130319,0.1210106,0.1170213,0.1050532,0.1010638,0.1037234,0,0,0,0,0,0,0,0,0,0,0,0,0,0,0,0,0,0,0,0,0,0,0,0,0,0,0,0,0,0,0,0,0,0,0,0,0,0,0,0,0,0,0,0,0,0,0,0,0,0,0,0,0,0,0,0,0,0,0,0,0,0,0,0,0,0,0,0,0,0,0,0,0,0,0,0,0,0,0,0,0,0,0,0,0,0,0,0,0,0,0,0,0,0,0,0,0,0,0,0,0,0,0,0,0,0,0,3
0.9669065,0.8460432,0.4690647,0.152518,0,0.0776978,0.1482014,0.1323741,0.1223022,0.1179856,0.1136691,0.1151079,0.1079137,0.1223022,0.1194245,0.1223022,0.1352518,0.1496403,0.1582734,0.1784173,0.1870504,0.2115108,0.2388489,0.2561151,0.2906475,0.3266187,0.3510791,0.3784173,0.4028777,0.4316547,0.4330935,0.4244604,0.428777,0.4215827,0.3971223,0.3769784,0.3510791,0.3323741,0.3079137,0.2805755,0.2719424,0.257554,0.2302158,0.2258993,0.2172662,0.2244604,0.2302158,0.2230216,0.2446043,0.2690648,0.2834532,0.3035971,0.3165468,0.3151079,0.2805755,0.2302158,0.2086331,0.2172662,0.2129496,0.2158273,0.2158273,0.2244604,0.2230216,0.2086331,0.2201439,0.3856115,0.7280576,1,0.8273382,0.4920863,0.1683453,0.0215827,0.123741,0.1755396,0.1467626,0.1338129,0.1381295,0.1352518,0.1323741,0.1294964,0,0,0,0,0,0,0,0,0,0,0,0,0,0,0,0,0,0,0,0,0,0,0,0,0,0,0,0,0,0,0,0,0,0,0,0,0,0,0,0,0,0,0,0,0,0,0,0,0,0,0,0,0,0,0,0,0,0,0,0,0,0,0,0,0,0,0,0,0,0,0,0,0,0,0,0,0,0,0,0,0,0,0,0,0,0,0,0,0,0,0,0,0,0,0,0,0,0,0,0,0,0,0,0,0,0,0,0
1,0.9550725,0.6347826,0.242029,0.1971014,0.2014493,0.1681159,0.1521739,0.1333333,0.1333333,0.1014493,0.0985507,0.0971014,0.1086956,0.084058,0.1101449,0.1028986,0.1043478,0.0884058,0.0884058,0.0666667,0.0623188,0.0376812,0.0405797,0.0057971,0.0086957,0,0.0231884,0.0246377,0.0565217,0.0695652,0.0913043,0.1057971,0.1405797,0.1492754,0.1753623,0.1826087,0.2028985,0.2043478,0.2115942,0.215942,0.2362319,0.2217391,0.2463768,0.2333333,0.242029,0.2376812,0.2565217,0.2463768,0.2623188,0.2594203,0.2739131,0.2710145,0.284058,0.2594203,0.2811594,0.2637681,0.2768116,0.2637681,0.2710145,0.2550725,0.2710145,0.2507246,0.2623188,0.2536232,0.2608696,0.2594203,0.2608696,0.2463768,0.2565217,0.2521739,0.2463768,0.2492754,0.2536232,0.2449275,0.2565217,0.2492754,0.2492754,0.2449275,0.2608696,0.2405797,0.257971,0.2478261,0.2521739,0.2478261,0.2550725,0.2507246,0.2565217,0.2492754,0.2550725,0.2478261,0.2623188,0.2492754,0.257971,0.2463768,0.2623188,0.2434783,0.2565217,0.2521739,0.2608696,0.2550725,0.257971,0.2521739,0.2608696,0.2521739,0.257971,0.2478261,0.2608696,0.2550725,0.2608696,0.2550725,0.2652174,0.2565217,0.2652174,0.2608696,0.2681159,0.2594203,0.2739131,0.2739131,0.3,0.3101449,0.3550725,0.3507246,0.3594203,0.3521739,0.3202899,0.2985507,0.2884058,0.2724638,0.2797101,0.2710145,0.2753623,0.257971,0.4246377,0.7434782,0.868116,0.6811594,0.2521739,0.2275362,0.2521739,0.2594203,0.2608696,0.2507246,0.2652174,0.2507246,0.2623188,0.257971,0.2608696,0,0,0,0,0,0,0,0,0,0,0,0,0,0,0,0,0,0,0,0,0,0,0,0,0,0,0,0,0,0,0,0,0,0,0,0,0,0,0,2
1,0.9037941,0.4037941,0.0338753,0.1842818,0.201897,0.1463415,0.1382114,0.1382114,0.1314363,0.1368564,0.1368564,0.1368564,0.1476965,0.1504065,0.1558266,0.1612466,0.1720867,0.1842818,0.1883469,0.1910569,0.2073171,0.2181572,0.2249323,0.2357724,0.2547425,0.2750677,0.2777778,0.2804878,0.302168,0.3157181,0.3116531,0.3143632,0.3211382,0.3170732,0.296748,0.2723577,0.2560976,0.2357724,0.2100271,0.200542,0.201897,0.200542,0.1910569,0.1869919,0.196477,0.1897019,0.1829268,0.1775068,0.1829268,0.1842818,0.1720867,0.1707317,0.1680217,0.1680217,0.1626016,0.1558266,0.1558266,0.1558266,0.1463415,0.1422764,0.1436314,0.1476965,0.1368564,0.1368564,0.1368564,0.1422764,0.1409214,0.1517615,0.1653116,0.1693767,0.1653116,0.1788618,0.1924119,0.1856369,0.1761518,0.1693767,0.1585366,0.1436314,0.1260163,0.1246612,0.1368564,0.1422764,0.1382114,0.1300813,0.1422764,0.2344173,0.4728997,0.7764227,0.9579946,0.7289973,0.2086721,0,0.1761518,0.1937669,0.1449865,0.1422764,0.1544715,0.1598916,0.1558266,0.1531165,0.1666667,0.1788618,0.1775068,0.1775068,0.1883469,0.201897,0,0,0,0,0,0,0,0,0,0,0,0,0,0,0,0,0,0,0,0,0,0,0,0,0,0,0,0,0,0,0,0,0,0,0,0,0,0,0,0,0,0,0,0,0,0,0,0,0,0,0,0,0,0,0,0,0,0,0,0,0,0,0,0,0,0,0,0,0,0,0,0,0,0,0,0,0,0,0,0,0
0.9502763,0.6243094,0.160221,0.0082873,0.0552486,0.0414365,0.0027624,0,0.0027624,0.0138122,0.0082873,0.0082873,0.0165746,0.019337,0.0138122,0.0220994,0.0276243,0.0441989,0.038674,0.0359116,0.0469613,0.0497238,0.0524862,0.0580111,0.0607735,0.0883978,0.0883978,0.0745856,0.0745856,0.0911602,0.0856354,0.0856354,0.0994475,0.1243094,0.1464088,0.1325967,0.1298342,0.1270718,0.1243094,0.1243094,0.1160221,0.1270718,0.1187845,0.1187845,0.1243094,0.1243094,0.1187845,0.1187845,0.1298342,0.1325967,0.1270718,0.1132597,0.1243094,0.1325967,0.1325967,0.121547,0.1187845,0.1298342,0.1298342,0.121547,0.1298342,0.1546961,0.1657459,0.1712707,0.2016575,0.2375691,0.2237569,0.2099448,0.198895,0.1767956,0.1353591,0.1104972,0.0966851,0.1022099,0.0911602,0.0773481,0.0801105,0.0883978,0.0607735,0.0911602,0.301105,0.6961326,1,0.8287293,0.3453039,0.0994475,0.0856354,0.0911602,0.0607735,0.0524862,0.0497238,0.0414365,0.0469613,0.0580111,0.0441989,0.0524862,0.0552486,0.0607735,0,0,0,0,0,0,0,0,0,0,0,0,0,0,0,0,0,0,0,0,0,0,0,0,0,0,0,0,0,0,0,0,0,0,0,0,0,0,0,0,0,0,0,0,0,0,0,0,0,0,0,0,0,0,0,0,0,0,0,0,0,0,0,0,0,0,0,0,0,0,0,0,0,0,0,0,0,0,0,0,0,0,0,0,0,0,0,0,0,0
0.9563994,0.859353,0.4964838,0.2025317,0.206751,0.2278481,0.1926864,0.188467,0.1898734,0.1800281,0.1744023,0.1772152,0.1744023,0.1715893,0.164557,0.1673699,0.1659634,0.1603376,0.1561181,0.1547117,0.1561181,0.1434599,0.140647,0.137834,0.137834,0.1279887,0.1195499,0.1125176,0.113924,0.0970464,0.0815752,0.0675105,0.0618847,0.0365682,0.0196906,0.0098453,0.0070323,0.0014065,0,0.0182841,0.0421941,0.0646976,0.0956399,0.1322082,0.1687764,0.188467,0.1997187,0.2165964,0.2320675,0.2362869,0.2362869,0.2433193,0.2461322,0.2475387,0.2461322,0.2531646,0.2559775,0.2531646,0.2531646,0.2616034,0.2616034,0.2644163,0.257384,0.2587904,0.2672293,0.2644163,0.2616034,0.2616034,0.2672293,0.2601969,0.257384,0.257384,0.2630098,0.2587904,0.257384,0.2601969,0.2672293,0.2658228,0.2672293,0.2770745,0.281294,0.281294,0.2925457,0.3052039,0.3136428,0.2911392,0.2714487,0.2728551,0.2756681,0.2700422,0.2503516,0.2433193,0.2475387,0.2447257,0.2419128,0.2447257,0.2447257,0.2390999,0.2390999,0.2419128,0.2475387,0.2447257,0.2461322,0.2475387,0.2348804,0.233474,0.3544304,0.6132208,0.8931083,1,0.8691983,0.4345992,0.185654,0.2362869,0.2447257,0.2208157,0.2208157,0.2250352,0.2123769,0.2109705,0.2165964,0.2151899,0.2081575,0.2039381,0.2081575,0.2053446,0.1997187,0.1983122,0,0,0,0,0,0,0,0,0,0,0,0,0,0,0,0,0,0,0,0,0,0,0,0,0,0,0,0,0,0,0,0,0,0,0,0,0,0,0,0,0,0,0,0,0,0,0,0,0,0,0,0,0,0,0,0,0,0,0,0
0.8512397,0.8347107,0.7933884,0.6756198,0.5330579,0.4586777,0.4235537,0.4028926,0.4793389,0.5247934,0.2747934,0.1900826,0.1549587,0.1198347,0.1053719,0.0950413,0.088843,0.0867769,0.072314,0.0640496,0.0433884,0.0413223,0.0413223,0.0268595,0.0268595,0.018595,0.0061983,0,0.0144628,0.0268595,0.0330578,0.0371901,0.0640496,0.0805785,0.1198347,0.1404959,0.1549587,0.1756198,0.1942149,0.2086777,0.2252066,0.2190083,0.2355372,0.25,0.2541322,0.2541322,0.2561983,0.2623967,0.2623967,0.2623967,0.268595,0.2603306,0.2561983,0.268595,0.2789256,0.285124,0.2892562,0.2871901,0.2913223,0.2871901,0.2747934,0.2871901,0.2789256,0.2768595,0.2892562,0.2768595,0.2768595,0.2706611,0.2747934,0.2768595,0.2809917,0.2830578,0.2913223,0.285124,0.2933884,0.2809917,0.2871901,0.2871901,0.2933884,0.2747934,0.2871901,0.2809917,0.2809917,0.2747934,0.2665289,0.2768595,0.2747934,0.2892562,0.2975207,0.2892562,0.2830578,0.2789256,0.2892562,0.285124,0.2933884,0.285124,0.2954545,0.2830578,0.2871901,0.2747934,0.2871901,0.2892562,0.2913223,0.3016529,0.2913223,0.303719,0.2954545,0.2995868,0.3057851,0.2933884,0.2913223,0.2913223,0.2954545,0.2892562,0.2975207,0.2995868,0.2995868,0.303719,0.3057851,0.2995868,0.3016529,0.3347107,0.4090909,0.5454546,0.7871901,1,0.9090909,0.5433884,0.2169421,0.2644628,0.2933884,0.2830578,0.2623967,0.2603306,0.2603306,0.2541322,0.2541322,0.2520661,0.2561983,0.268595,0.2561983,0.2541322,0,0,0,0,0,0,0,0,0,0,0,0,0,0,0,0,0,0,0,0,0,0,0,0,0,0,0,0,0,0,0,0,0,0,0,0,0,0,0,0,0,0,0,0,0,2
1,0.6455696,0.6867089,0.6234177,0.6234177,0.5981013,0.6044304,0.5506329,0.4683544,0.3544304,0.25,0.1613924,0.1234177,0.1170886,0.1360759,0.1613924,0.2816456,0.3955696,0.4556962,0.4841772,0.4968354,0.5221519,0.528481,0.5411392,0.556962,0.5886076,0.6075949,0.6392405,0.6487342,0.6487342,0.6329114,0.6329114,0.636076,0.6424051,0.6455696,0.6424051,0.664557,0.664557,0.6677215,0.6740506,0.6740506,0.6740506,0.6740506,0.6962025,0.7025316,0.7088608,0.7088608,0.7025316,0.6993671,0.6867089,0.6898734,0.6708861,0.6582279,0.6455696,0.636076,0.6234177,0.6234177,0.613924,0.5917721,0.5822785,0.5822785,0.5759494,0.5664557,0.5632911,0.5601266,0.556962,0.5537975,0.5411392,0.5379747,0.528481,0.5411392,0.5348101,0.528481,0.5221519,0.5126582,0.5063291,0.5063291,0.5,0.4936709,0.4841772,0.4873418,0.4778481,0.4810127,0.471519,0.4683544,0.4683544,0.4683544,0.4683544,0.4620253,0.4841772,0.471519,0.4651899,0.4746836,0.4651899,0.4651899,0.4683544,0.5189874,0.914557,0.7721519,0.6424051,0.5917721,0.5886076,0.5791139,0.5411392,0.5031645,0.4367089,0.3702532,0.2310127,0.1329114,0.0443038,0.0126582,0,0.0094937,0.0253165,0.0886076,0.2056962,0.2879747,0.3544304,0,0,0,0,0,0,0,0,0,0,0,0,0,0,0,0,0,0,0,0,0,0,0,0,0,0,0,0,0,0,0,0,0,0,0,0,0,0,0,0,0,0,0,0,0,0,0,0,0,0,0,0,0,0,0,0,0,0,0,0,0,0,0,0,0,0,0,0,0,4
1,0.5289855,0.5144928,0.5144928,0.5434783,0.5652174,0.6014493,0.5942029,0.615942,0.6014493,0.6086956,0.5724638,0.5942029,0.5724638,0.5724638,0.5507246,0.557971,0.5144928,0.5072464,0.4710145,0.4347826,0.3695652,0.3333333,0.2536232,0.1811594,0.1521739,0.1376812,0.1449275,0.1884058,0.2246377,0.2681159,0.2753623,0.2753623,0.2753623,0.2463768,0.2536232,0.2681159,0.2681159,0.2898551,0.2463768,0.2463768,0.1956522,0.2028985,0.1811594,0.1521739,0.115942,0.0724638,0.0289855,0,0.0362319,0.0652174,0.1304348,0.1666667,0.1231884,0.4347826,0.8985507,0.7971014,0.3550725,0.3550725,0.3188406,0.2681159,0.2318841,0.2536232,0.2391304,0.2536232,0,0,0,0,0,0,0,0,0,0,0,0,0,0,0,0,0,0,0,0,0,0,0,0,0,0,0,0,0,0,0,0,0,0,0,0,0,0,0,0,0,0,0,0,0,0,0,0,0,0,0,0,0,0,0,0,0,0,0,0,0,0,0,0,0,0,0,0,0,0,0,0,0,0,0,0,0,0,0,0,0,0,0,0,0,0,0,0,0,0,0,0,0,0,0,0,0,0,0,0,0,0,0,0,0,0,0,0,0,0,0,0,0,0,0,0,0,0,0,0,0,0,0
0.5375723,0.9653179,0.982659,0.0693642,0.017341,0.3063584,0.3468208,0.3641618,0.3583815,0.3872832,0.3815029,0.4508671,0.3815029,0.4104046,0.3872832,0.4450867,0.3988439,0.4277457,0.4277457,0.4566474,0.4508671,0.4508671,0.4277457,0.4450867,0.4566474,0.4797688,0.4913295,0.5260116,0.5144508,0.5606936,0.5780347,0.5895954,0.5780347,0.6705202,0.6647399,0.7109827,0.7283237,0.734104,0.6705202,0.6878613,0.6300578,0.6242775,0.5606936,0.5260116,0.4971098,0.4797688,0.4277457,0.4566474,0.433526,0.4624277,0.4277457,0.4682081,0.4277457,0.4508671,0.416185,0.433526,0.3988439,0.416185,0.4104046,0.4277457,0.3930636,0.4219653,0.3988439,0.4046243,0.416185,0.4104046,0.4277457,0.4104046,0.416185,0.433526,0.3930636,0.4219653,0.3872832,0.3930636,0.3641618,0.4104046,0.3988439,0.3930636,0.3815029,0.3872832,0.3699422,0.3815029,0.3757226,0.3872832,0.3699422,0.3988439,0.3699422,0.3930636,0.3757226,0.3872832,0.3641618,0.3930636,0.4046243,0.4624277,0.4219653,0.4508671,0.4566474,0.4508671,0.3757226,0.416185,0.416185,0.4624277,0.4219653,0.3815029,0.3468208,0.3757226,0.3641618,0.3699422,0.3352601,0.3815029,0.3757226,0.4104046,0.4450867,0.583815,0.5549133,0.6416185,0.6069364,1,0.9595376,0.1791908,0,0.2774566,0.3699422,0.416185,0.4046243,0.416185,0.3930636,0.4277457,0.416185,0.4393063,0.4393063,0.4566474,0.4450867,0.4682081,0.4450867,0.4739884,0.4682081,0.4913295,0.4797688,0.5086705,0,0,0,0,0,0,0,0,0,0,0,0,0,0,0,0,0,0,0,0,0,0,0,0,0,0,0,0,0,0,0,0,0,0,0,0,0,0,0,0,0,0,0,0,0,0,0,0
0.9230769,0.821978,0.410989,0.2241758,0.2637363,0.2461538,0.232967,0.2065934,0.1692308,0.1186813,0.0791209,0.0747253,0.0615385,0.0571429,0.0527473,0.0483516,0.0505495,0.0483516,0.0373626,0.043956,0.0395604,0.0373626,0.0285714,0.0175824,0.0153846,0.010989,0.0087912,0.0043956,0,0.0043956,0.0131868,0.032967,0.0615385,0.0901099,0.1010989,0.1098901,0.1384615,0.1428571,0.1494506,0.1472528,0.145055,0.1472528,0.145055,0.1428571,0.1406593,0.1406593,0.145055,0.145055,0.1494506,0.145055,0.1494506,0.1494506,0.1516484,0.1538462,0.145055,0.1538462,0.1714286,0.1846154,0.1802198,0.1736264,0.1868132,0.1846154,0.189011,0.178022,0.1824176,0.1714286,0.156044,0.145055,0.1428571,0.1538462,0.1406593,0.1472528,0.1516484,0.145055,0.1582418,0.1582418,0.1868132,0.2923077,0.3978022,0.5406594,0.7472528,1,0.9472528,0.6527473,0.3824176,0.2967033,0.3318681,0.3054945,0.2681319,0.2351648,0.1868132,0.1340659,0.1142857,0.0967033,0.0967033,0.0835165,0,0,0,0,0,0,0,0,0,0,0,0,0,0,0,0,0,0,0,0,0,0,0,0,0,0,0,0,0,0,0,0,0,0,0,0,0,0,0,0,0,0,0,0,0,0,0,0,0,0,0,0,0,0,0,0,0,0,0,0,0,0,0,0,0,0,0,0,0,0,0,0,0,0,0,0,0,0,0,0,0,0,0,0,0,0,0,0,0,0,0,0
0.9588689,0.7866324,0.2750643,0.0102828,0.0411311,0.0488432,0.033419,0.0231362,0.0128535,0.033419,0.0411311,0.033419,0.0128535,0.0257069,0.0488432,0.0462725,0.0308483,0.0411311,0.0616967,0.0694087,0.0616967,0.0565553,0.0719794,0.0874036,0.0848329,0.0899743,0.0822622,0.0899743,0.092545,0.0951157,0.1002571,0.1079691,0.1105398,0.1131105,0.1311054,0.1388175,0.125964,0.1311054,0.1362468,0.1156812,0.1028278,0.1182519,0.1208226,0.1156812,0.1131105,0.1079691,0.1336761,0.1336761,0.1182519,0.1208226,0.1336761,0.1362468,0.1362468,0.1388175,0.1413882,0.1388175,0.1388175,0.1285347,0.1336761,0.1233933,0.1388175,0.159383,0.1722365,0.1748072,0.1928021,0.2236504,0.2236504,0.2056555,0.1568123,0.125964,0.125964,0.1053985,0.0822622,0.0694087,0.0796915,0.0899743,0.0642674,0.0488432,0.1079691,0.2982005,0.6452442,1,0.8766067,0.3676093,0.0694087,0.0745501,0.0796915,0.0385604,0.0077121,0.0205656,0.0359897,0.0154242,0.0025707,0.0179949,0.0231362,0.0128535,0,0,0,0,0,0,0,0,0,0,0,0,0,0,0,0,0,0,0,0,0,0,0,0,0,0,0,0,0,0,0,0,0,0,0,0,0,0,0,0,0,0,0,0,0,0,0,0,0,0,0,0,0,0,0,0,0,0,0,0,0,0,0,0,0,0,0,0,0,0,0,0,0,0,0,0,0,0,0,0,0,0,0,0,0,0,0,0,0,0,0,0
0.6192171,0.4893239,0.3274021,0.1103203,0,0.0604982,0.1085409,0.1085409,0.1459075,0.1921708,0.2224199,0.2597865,0.2793594,0.2829182,0.2793594,0.2758007,0.2811388,0.2882562,0.2864769,0.2811388,0.2793594,0.2900356,0.291815,0.297153,0.3131673,0.3345196,0.3576512,0.3807829,0.4056939,0.4359431,0.4644128,0.4768683,0.4911032,0.5088968,0.5017794,0.4964413,0.4839858,0.4715303,0.4572954,0.430605,0.4163701,0.4074733,0.386121,0.3594306,0.3505338,0.3540925,0.341637,0.3309608,0.3274021,0.3309608,0.3274021,0.3131673,0.3149466,0.322064,0.3185053,0.3131673,0.3113879,0.316726,0.3113879,0.3024911,0.2989324,0.3078292,0.3042705,0.2953737,0.2900356,0.2989324,0.291815,0.2900356,0.2900356,0.2953737,0.2882562,0.2900356,0.2882562,0.2882562,0.2882562,0.2864769,0.291815,0.297153,0.3024911,0.3007118,0.3096085,0.3238434,0.3309608,0.3274021,0.3202847,0.3149466,0.2953737,0.2811388,0.2740214,0.2669039,0.2633452,0.2615658,0.2633452,0.272242,0.2775801,0.2953737,0.3540925,0.4715303,0.658363,0.8505338,1,0.9768683,0.5427046,0.1939502,0.1850534,0.2188612,0.2241993,0.2010676,0.2046263,0.2099644,0.2010676,0.1975089,0,0,0,0,0,0,0,0,0,0,0,0,0,0,0,0,0,0,0,0,0,0,0,0,0,0,0,0,0,0,0,0,0,0,0,0,0,0,0,0,0,0,0,0,0,0,0,0,0,0,0,0,0,0,0,0,0,0,0,0,0,0,0,0,0,0,0,0,0,0,0,0,0,0,0,2
1,0.9294872,0.6820513,0.5217949,0.5141026,0.4897436,0.4551282,0.4615385,0.4576923,0.4538462,0.4423077,0.4423077,0.4512821,0.45,0.4423077,0.4423077,0.4435897,0.4410256,0.4333333,0.4282051,0.4205128,0.4038461,0.3974359,0.3897436,0.3846154,0.375641,0.374359,0.3807692,0.3910256,0.4064102,0.4282051,0.4525641,0.4730769,0.4846154,0.4961538,0.5,0.5,0.5038462,0.5038462,0.5141026,0.5358974,0.5653846,0.6141025,0.6782051,0.7717949,0.7717949,0.5538462,0.2820513,0.1320513,0.0358974,0,0.024359,0.1038462,0.1858974,0.2397436,0.3128205,0.3948718,0.4307692,0.475641,0.5525641,0.5961539,0.5923077,0.5884615,0.6038461,0,0,0,0,0,0,0,0,0,0,0,0,0,0,0,0,0,0,0,0,0,0,0,0,0,0,0,0,0,0,0,0,0,0,0,0,0,0,0,0,0,0,0,0,0,0,0,0,0,0,0,0,0,0,0,0,0,0,0,0,0,0,0,0,0,0,0,0,0,0,0,0,0,0,0,0,0,0,0,0,0,0,0,0,0,0,0,0,0,0,0,0,0,0,0,0,0,0,0,0,0,0,0,0,0,0,0,0,0,0,0,0,0,0,0,0,0,0,0,0,0,0,0,0
0.8612863,0.7087011,0.4035309,0.1387137,0.0277427,0.0895334,0.1412358,0.1248424,0.1134931,0.10971,0.1172762,0.1071879,0.0996217,0.1160151,0.112232,0.1185372,0.1311475,0.1538462,0.1815889,0.1929382,0.223203,0.2484237,0.2648171,0.2988651,0.334174,0.3656999,0.3871374,0.4022699,0.4237074,0.4325347,0.4350567,0.4262295,0.4110971,0.3947037,0.3783102,0.3392182,0.3177806,0.3026482,0.2749054,0.2471627,0.220681,0.2042875,0.1941992,0.1815889,0.1828499,0.185372,0.185372,0.2017654,0.2181589,0.2446406,0.258512,0.2534679,0.2332913,0.186633,0.1740227,0.1651955,0.1576293,0.1639344,0.1525851,0.1197982,0.1311475,0.2282472,0.3883985,0.5435057,0.7364439,0.9155107,1,0.8713745,0.5283732,0.1815889,0.0605296,0.074401,0.0517024,0.0416141,0.0327869,0.0138714,0.0075662,0,0,0,0,0,0,0,0,0,0,0,0,0,0,0,0,0,0,0,0,0,0,0,0,0,0,0,0,0,0,0,0,0,0,0,0,0,0,0,0,0,0,0,0,0,0,0,0,0,0,0,0,0,0,0,0,0,0,0,0,0,0,0,0,0,0,0,0,0,0,0,0,0,0,0,0,0,0,0,0,0,0,0,0,0,0,0,0,0,0,0,0,0,0,0,0,0,0,0,0,0,0,0,0,0,0,0,0,0,0,0
1,0.578199,0,0.028436,0.0924171,0.0710901,0.0710901,0.0710901,0.0663507,0.0473934,0.049763,0.0663507,0.063981,0.0616114,0.0592417,0.0687204,0.0710901,0.063981,0.063981,0.0734597,0.0734597,0.0710901,0.0687204,0.0924171,0.0947867,0.0924171,0.0947867,0.1090047,0.1066351,0.1090047,0.1113744,0.1303318,0.1374408,0.1279621,0.1279621,0.1516588,0.1611374,0.1611374,0.1706161,0.1943128,0.2061611,0.2227488,0.2511848,0.2843602,0.2962085,0.3033175,0.3175355,0.3341232,0.3388626,0.3388626,0.3317536,0.3364929,0.3199052,0.3009479,0.2843602,0.2701422,0.2440758,0.2132701,0.1943128,0.1895735,0.1777251,0.1563981,0.1492891,0.1492891,0.1540284,0.1421801,0.1398104,0.1469194,0.1398104,0.1303318,0.1303318,0.1350711,0.1303318,0.1303318,0.1350711,0.1421801,0.1445498,0.1611374,0.1800948,0.1824645,0.1563981,0.1327014,0.0924171,0.0853081,0.0710901,0.0616114,0.0545024,0.0521327,0.0545024,0.0473934,0.042654,0.0545024,0.0473934,0.049763,0.0450237,0.056872,0.0521327,0.0521327,0.0473934,0.056872,0.0592417,0.0521327,0.049763,0,0,0,0,0,0,0,0,0,0,0,0,0,0,0,0,0,0,0,0,0,0,0,0,0,0,0,0,0,0,0,0,0,0,0,0,0,0,0,0,0,0,0,0,0,0,0,0,0,0,0,0,0,0,0,0,0,0,0,0,0,0,0,0,0,0,0,0,0,0,0,0,0,0,0,0,0,0,0,0,0,0,0,0,0
1,0.842829,0.1453831,0.0785855,0.1001965,0.1159136,0.0943026,0.0982318,0.0962672,0.0982318,0.1021611,0.0943026,0.0884086,0.1060904,0.1021611,0.1001965,0.1100196,0.1218075,0.1257367,0.1355599,0.1434185,0.1532416,0.1650295,0.1768173,0.1905697,0.2082515,0.2337918,0.2573674,0.280943,0.3064833,0.3379175,0.3575639,0.3732809,0.3791749,0.3654224,0.3595285,0.3300589,0.3143418,0.2829077,0.2573674,0.2396857,0.2141454,0.2043222,0.1905697,0.1866405,0.1689587,0.1552063,0.1689587,0.172888,0.1748527,0.1807466,0.1768173,0.1886051,0.1866405,0.1964637,0.1984283,0.2023576,0.2003929,0.2023576,0.2043222,0.1984283,0.2003929,0.1984283,0.1905697,0.1807466,0.1807466,0.1748527,0.1689587,0.1709234,0.1669941,0.1571709,0.1552063,0.1493124,0.1552063,0.1493124,0.151277,0.1473477,0.1453831,0.1532416,0.1493124,0.1493124,0.1453831,0.1493124,0.1611002,0.1571709,0.1552063,0.129666,0.1277014,0.1355599,0.1355599,0.1473477,0.1414538,0.1453831,0.1493124,0.1532416,0.1709234,0.1787819,0.2062868,0.2337918,0.2829077,0.3005894,0.2573674,0.2416503,0.2062868,0.1807466,0.1650295,0.1552063,0.1552063,0.1611002,0.1532416,0.1709234,0.4852652,0.9410609,0.9666012,0.4047151,0,0.1394892,0.129666,0.1257367,0.1237721,0.1198428,0.1139489,0.1218075,0.1257367,0.1237721,0.1277014,0.129666,0.1335953,0.1453831,0.1532416,0.1630648,0.151277,0.1630648,0.1630648,0.1768173,0.1925344,0,0,0,0,0,0,0,0,0,0,0,0,0,0,0,0,0,0,0,0,0,0,0,0,0,0,0,0,0,0,0,0,0,0,0,0,0,0,0,0,0,0,0,0,0,0,0,0,0,0,0,0
1,0.8659218,0.4040968,0,0.1173184,0.3761639,0.4376164,0.4134078,0.4189944,0.433892,0.4357542,0.433892,0.4394786,0.452514,0.4562384,0.4543762,0.4674115,0.4823091,0.4804469,0.4878957,0.5027933,0.5232775,0.5288641,0.5363129,0.5605214,0.5698324,0.5735568,0.5810056,0.5865922,0.594041,0.5903166,0.5772812,0.575419,0.5698324,0.5437616,0.5121043,0.4990689,0.4841713,0.4543762,0.433892,0.433892,0.424581,0.4096834,0.405959,0.4171322,0.4189944,0.4189944,0.4189944,0.4171322,0.4264432,0.4264432,0.4227188,0.424581,0.4301676,0.424581,0.4115456,0.4227188,0.4283054,0.4171322,0.41527,0.4171322,0.41527,0.4078212,0.4022346,0.405959,0.3985102,0.3985102,0.3910615,0.3985102,0.4040968,0.3929237,0.3873371,0.4003724,0.4022346,0.396648,0.3891993,0.4003724,0.4003724,0.396648,0.396648,0.396648,0.4022346,0.41527,0.4189944,0.4394786,0.4562384,0.4357542,0.4320298,0.4320298,0.4096834,0.4022346,0.3854749,0.3780261,0.3817505,0.3854749,0.3798883,0.3780261,0.3854749,0.3836127,0.3780261,0.3873371,0.3929237,0.3947859,0.4357542,0.6070763,0.877095,0.9981378,0.6908752,0.1545624,0.0353817,0.2960894,0.4394786,0.4283054,0.4171322,0.4264432,0.433892,0.4413408,0.4506518,0.4506518,0.4487896,0.4636872,0.4711359,0.4748603,0.4823091,0.4972067,0.5121043,0.5176909,0,0,0,0,0,0,0,0,0,0,0,0,0,0,0,0,0,0,0,0,0,0,0,0,0,0,0,0,0,0,0,0,0,0,0,0,0,0,0,0,0,0,0,0,0,0,0,0,0,0,0,0,0,0,0,0,0,0,0,0,0
0.5391304,0.8608696,0.8043478,0.1217391,0.0304348,0.2608696,0.2695652,0.3086956,0.2956522,0.326087,0.326087,0.3652174,0.3434783,0.3608696,0.326087,0.3652174,0.3478261,0.3695652,0.3565217,0.373913,0.3695652,0.3956522,0.373913,0.4043478,0.373913,0.4304348,0.3956522,0.426087,0.4217391,0.4652174,0.4565217,0.526087,0.5304348,0.5826087,0.5956522,0.6304348,0.6086956,0.6173913,0.5652174,0.5565217,0.4826087,0.473913,0.4217391,0.4217391,0.3956522,0.4130435,0.3695652,0.4043478,0.3869565,0.4,0.3782609,0.3826087,0.3608696,0.3695652,0.3347826,0.373913,0.3521739,0.373913,0.3565217,0.3826087,0.3565217,0.3913043,0.3521739,0.3913043,0.3565217,0.3782609,0.3521739,0.3782609,0.3521739,0.3478261,0.3217391,0.3478261,0.3043478,0.3347826,0.3,0.3434783,0.3173913,0.3304348,0.3043478,0.326087,0.3,0.326087,0.3,0.3217391,0.3086956,0.3217391,0.2956522,0.3130435,0.3,0.3217391,0.3304348,0.3608696,0.3478261,0.3869565,0.3478261,0.3608696,0.3217391,0.3347826,0.3173913,0.3608696,0.3391304,0.3304348,0.2956522,0.326087,0.2956522,0.3086956,0.2782609,0.3086956,0.2913043,0.3130435,0.3,0.3521739,0.3869565,0.526087,0.5043478,0.5826087,0.626087,1,0.6391304,0,0.1478261,0.3217391,0.3173913,0.326087,0.3130435,0.3434783,0.326087,0.3521739,0.3565217,0.3608696,0.3521739,0.3869565,0.3695652,0.4,0.3565217,0.4130435,0.3913043,0.4086956,0,0,0,0,0,0,0,0,0,0,0,0,0,0,0,0,0,0,0,0,0,0,0,0,0,0,0,0,0,0,0,0,0,0,0,0,0,0,0,0,0,0,0,0,0,0,0,0,0,0
0,0.0774194,0.2064516,0.2822581,0.3774194,0.4370968,0.4983871,0.5193548,0.5483871,0.6258065,0.6806452,0.7177419,0.7258065,0.7564516,0.7580645,0.7774193,0.7903226,0.8032258,0.8177419,0.8354838,0.8387097,0.8483871,0.8451613,0.8419355,0.8387097,0.8435484,0.8274193,0.8129032,0.7967742,0.7725806,0.7548387,0.7306452,0.7064516,0.6983871,0.6693549,0.6532258,0.6516129,0.6387097,0.6225806,0.6209677,0.6306452,0.6209677,0.6241935,0.6258065,0.6209677,0.6209677,0.6177419,0.6193548,0.6112903,0.6145161,0.6064516,0.6177419,0.6096774,0.6225806,0.6064516,0.6193548,0.5983871,0.6193548,0.6145161,0.6241935,0.6145161,0.616129,0.6048387,0.6016129,0.6048387,0.6064516,0.5919355,0.6096774,0.6080645,0.6145161,0.616129,0.6225806,0.6274194,0.6290323,0.6209677,0.6322581,0.633871,0.633871,0.6209677,0.6274194,0.6258065,0.6209677,0.6112903,0.616129,0.6145161,0.6274194,0.6129032,0.616129,0.6048387,0.6193548,0.6951613,0.7887097,0.8870968,1,0.9580645,0.616129,0.4790322,0.5467742,0.566129,0.5870968,0.5790322,0.5838709,0.5919355,0.5935484,0.5903226,0,0,0,0,0,0,0,0,0,0,0,0,0,0,0,0,0,0,0,0,0,0,0,0,0,0,0,0,0,0,0,0,0,0,0,0,0,0,0,0,0,0,0,0,0,0,0,0,0,0,0,0,0,0,0,0,0,0,0,0,0,0,0,0,0,0,0,0,0,0,0,0,0,0,0,0,0,0,0,0,0,0,2
0.8538461,0.9115385,0.5461538,0.15,0.1153846,0,0.1653846,0.25,0.3038462,0.2884615,0.3153846,0.3,0.3192308,0.2807692,0.3115385,0.2846154,0.3076923,0.2961538,0.3076923,0.2923077,0.3153846,0.3,0.3192308,0.3153846,0.3307692,0.3115385,0.3346154,0.3230769,0.3384615,0.3115385,0.3461539,0.3269231,0.3461539,0.3461539,0.3576923,0.35,0.3615385,0.3461539,0.3576923,0.3307692,0.3423077,0.3115385,0.3307692,0.3115385,0.3230769,0.3153846,0.3423077,0.3461539,0.3884615,0.3884615,0.4461538,0.4653846,0.4961538,0.5153846,0.5576923,0.5038462,0.4538462,0.3653846,0.3423077,0.3307692,0.3538462,0.3384615,0.3423077,0.3307692,0.3576923,0.3346154,0.35,0.3538462,0.3615385,0.35,0.3692308,0.3653846,0.3807692,0.3730769,0.3769231,0.3730769,0.3846154,0.3769231,0.3923077,0.3769231,0.4038461,0.3730769,0.4076923,0.5076923,0.7807692,0.8653846,0.9653846,0.9384615,1,0.9384615,0.6230769,0.35,0.0692308,0.0923077,0.1653846,0.2384615,0.2769231,0.2653846,0.2884615,0.2615385,0.2769231,0.2423077,0.2576923,0.2346154,0.2576923,0.2269231,0.2346154,0.2192308,0.2461538,0.2230769,0.2538462,0.2384615,0,0,0,0,0,0,0,0,0,0,0,0,0,0,0,0,0,0,0,0,0,0,0,0,0,0,0,0,0,0,0,0,0,0,0,0,0,0,0,0,0,0,0,0,0,0,0,0,0,0,0,0,0,0,0,0,0,0,0,0,0,0,0,0,0,0,0,0,0,0,0,0,0,0,0,2
0.4778068,0.4830287,0.3289817,0.1827676,0.1383812,0.1671018,0.1801567,0.1671018,0.1879896,0.1644909,0.2036553,0.1932115,0.2114882,0.2349869,0.2767624,0.2872063,0.3315927,0.3550914,0.3916449,0.4020888,0.464752,0.462141,0.4882506,0.4882506,0.4908616,0.4516971,0.4308094,0.383812,0.3681462,0.3342037,0.3342037,0.3028721,0.2924282,0.2819843,0.2924282,0.2819843,0.3289817,0.3629243,0.3812011,0.3420365,0.6396867,0.8198434,1,0.921671,0.7336814,0.3603133,0.1357702,0.0966057,0.075718,0.0548303,0.0548303,0,0,0,0,0,0,0,0,0,0,0,0,0,0,0,0,0,0,0,0,0,0,0,0,0,0,0,0,0,0,0,0,0,0,0,0,0,0,0,0,0,0,0,0,0,0,0,0,0,0,0,0,0,0,0,0,0,0,0,0,0,0,0,0,0,0,0,0,0,0,0,0,0,0,0,0,0,0,0,0,0,0,0,0,0,0,0,0,0,0,0,0,0,0,0,0,0,0,0,0,0,0,0,0,0,0,0,0,0,0,0,0,0,0,0,0,0,0,0,0,0,0,0,0,0,0,0,0,0,0,0,0,0,0,0,0,2
0.7549549,0.6504505,0.4936937,0.209009,0,0.0972973,0.1081081,0.0630631,0.0810811,0.1117117,0.154955,0.2324324,0.2774775,0.3261261,0.3315315,0.354955,0.3657658,0.3765766,0.3711712,0.390991,0.3981982,0.381982,0.4072072,0.4162162,0.4162162,0.4432432,0.4504505,0.4936937,0.5045045,0.5621622,0.590991,0.6324325,0.6522523,0.7081081,0.7171171,0.7333333,0.7081081,0.7261261,0.7009009,0.6774775,0.6486486,0.6414415,0.5981982,0.5405405,0.5081081,0.5081081,0.4612613,0.4756757,0.4558558,0.4774775,0.418018,0.4126126,0.4198198,0.4792793,0.5063063,0.581982,0.6792793,0.8126126,0.9063063,0.9981982,0.954955,0.9801802,1,0.9531531,0.7027027,0.4342342,0.2954955,0.2630631,0.2,0.209009,0.1621622,0.1567568,0.1387387,0.1333333,0.1009009,0.1189189,0.1279279,0.1261261,0.1279279,0.1531532,0.1351351,0.0828829,0.0288288,0.0792793,0.0630631,0.0576577,0.0540541,0.0576577,0.0198198,0.027027,0.0306306,0,0,0,0,0,0,0,0,0,0,0,0,0,0,0,0,0,0,0,0,0,0,0,0,0,0,0,0,0,0,0,0,0,0,0,0,0,0,0,0,0,0,0,0,0,0,0,0,0,0,0,0,0,0,0,0,0,0,0,0,0,0,0,0,0,0,0,0,0,0,0,0,0,0,0,0,0,0,0,0,0,0,0,0,0,0,0,0,0,0,0,0,0,0,0,0,2
0.9297597,1,0.5582255,0.1626617,0.064695,0.0166359,0.012939,0.0073937,0.0166359,0.1016636,0.2883549,0.4048059,0.4269871,0.4565619,0.4528651,0.4491682,0.4584104,0.4491682,0.4621072,0.4528651,0.4288355,0.4214418,0.414048,0.4029575,0.3807763,0.3456562,0.3696858,0.3419593,0.3475046,0.3271719,0.3475046,0.3937154,0.3863216,0.3696858,0.414048,0.4380776,0.4417745,0.4658041,0.4676525,0.4768946,0.4768946,0.4953789,0.5157117,0.5231054,0.5138632,0.4972274,0.4916821,0.5157117,0.5083179,0.5101663,0.5120148,0.4935305,0.4713494,0.4473198,0.5175601,0.4935305,0.4602588,0.4990758,0.5194085,0.4842884,0.4695009,0.4824399,0.4768946,0.4990758,0.5046211,0.4824399,0.5138632,0.4953789,0.5212569,0.5452865,0.5415897,0.5323475,0.5785582,0.5878004,0.5582255,0.5637708,0.5804067,0.5730129,0.5508318,0.5046211,0.4842884,0.4990758,0.4935305,0.4787431,0.4602588,0.4325323,0.4750462,0.4898337,0.4269871,0.4768946,0.5157117,0.4658041,0.4584104,0.5563771,0.7393715,0.818854,0.8077634,0.9981516,0.8410351,0.2236599,0,0.025878,0.0221811,0.0018484,0.0314233,0.1330869,0.3142329,0.4048059,0.4343808,0.4510166,0.4473198,0.4510166,0.4454713,0.4325323,0.4510166,0.4454713,0,0,0,0,0,0,0,0,0,0,0,0,0,0,0,0,0,0,0,0,0,0,0,0,0,0,0,0,0,0,0,0,0,0,0,0,0,0,0,0,0,0,0,0,0,0,0,0,0,0,0,0,0,0,0,0,0,0,0,0,0,0,0,0,0,0,0,0,0,0,0,0
0.9407408,0.7888889,0.4592593,0,0,0.0814815,0.1444445,0.1333333,0.1296296,0.1111111,0.1518518,0.1740741,0.1703704,0.1703704,0.1888889,0.162963,0.1888889,0.1666667,0.1814815,0.1703704,0.2259259,0.1888889,0.1851852,0.1814815,0.2222222,0.2185185,0.2259259,0.2481481,0.2444444,0.2407407,0.2481481,0.2555556,0.2777778,0.2814815,0.3148148,0.3037037,0.3333333,0.3259259,0.3444445,0.3222222,0.3259259,0.3,0.3074074,0.3037037,0.2925926,0.2814815,0.2814815,0.262963,0.2888889,0.2740741,0.2666667,0.2296296,0.2555556,0.237037,0.2407407,0.2222222,0.2296296,0.2222222,0.2481481,0.2111111,0.2111111,0.2,0.2259259,0.2074074,0.2148148,0.2074074,0.2444444,0.237037,0.2444444,0.2666667,0.2777778,0.262963,0.2925926,0.2814815,0.2814815,0.2555556,0.2481481,0.2333333,0.2407407,0.2407407,0.2518519,0.2518519,0.2962963,0.237037,0.237037,0.2259259,0.2518519,0.2518519,0.2555556,0.2481481,0.2296296,0.2518519,0.4370371,0.6222222,0.8333333,1,0.7962963,0.4370371,0.062963,0.0703704,0.1592593,0.1814815,0.1592593,0.1592593,0.1851852,0.1777778,0.2,0.1703704,0.2,0.1888889,0.237037,0.2148148,0.2185185,0.2259259,0,0,0,0,0,0,0,0,0,0,0,0,0,0,0,0,0,0,0,0,0,0,0,0,0,0,0,0,0,0,0,0,0,0,0,0,0,0,0,0,0,0,0,0,0,0,0,0,0,0,0,0,0,0,0,0,0,0,0,0,0,0,0,0,0,0,0,0,0,0,0,0,0,0
1,0.9829222,0.6982922,0.4383302,0.4136622,0.3795066,0.3263757,0.2789374,0.2333966,0.1840607,0.1593928,0.1233397,0.1271347,0.1119545,0.1157495,0.0948767,0.1119545,0.0948767,0.0967742,0.085389,0.0815939,0.0759013,0.0683112,0.0531309,0.0531309,0.0322581,0.0322581,0.0056926,0.0056926,0,0.0075901,0.0056926,0.0151803,0.0360531,0.0626186,0.0929791,0.1195446,0.1385199,0.1688805,0.1669829,0.1764706,0.1802657,0.1821632,0.1802657,0.174573,0.1821632,0.1859583,0.1764706,0.1821632,0.1726755,0.1783681,0.1764706,0.1783681,0.1669829,0.1783681,0.1726755,0.1802657,0.1688805,0.1764706,0.1688805,0.1821632,0.1783681,0.1821632,0.1688805,0.1859583,0.174573,0.1859583,0.1726755,0.1802657,0.1783681,0.1821632,0.1726755,0.1840607,0.174573,0.1878558,0.1726755,0.1821632,0.1821632,0.1916509,0.1859583,0.2011385,0.2030361,0.2144213,0.2030361,0.2030361,0.1916509,0.1821632,0.1821632,0.1783681,0.1688805,0.1726755,0.1631879,0.174573,0.1688805,0.1764706,0.1764706,0.1878558,0.1859583,0.1954459,0.1840607,0.2485768,0.3510436,0.4421252,0.5464895,0.7685009,0.9696395,0.9089184,0.5616698,0.4440228,0.4060721,0.373814,0.3036053,0.2713473,0.1954459,0.1821632,0.1385199,0.1271347,0.1157495,0.1157495,0.1043643,0.1100569,0.0872865,0.0967742,0.0740038,0.0910816,0.0759013,0,0,0,0,0,0,0,0,0,0,0,0,0,0,0,0,0,0,0,0,0,0,0,0,0,0,0,0,0,0,0,0,0,0,0,0,0,0,0,0,0,0,0,0,0,0,0,0,0,0,0,0,0,0,0,0,0,0,0,0,0,0
0.9979123,0.8768267,0.3152401,0,0.1607516,0.1524008,0.0793319,0.0688935,0.0730689,0.0668058,0.0626305,0.0521921,0.0605428,0.0647182,0.0521921,0.0584551,0.0709812,0.0688935,0.0605428,0.0688935,0.085595,0.0835073,0.0814196,0.0876827,0.1085595,0.1148225,0.1231733,0.1356994,0.1607516,0.1816284,0.1899791,0.2108559,0.2442589,0.2672234,0.2797495,0.2901879,0.3194155,0.3256785,0.308977,0.2797495,0.2546973,0.2129436,0.177453,0.1461378,0.1336117,0.1273486,0.1085595,0.0960334,0.1064718,0.0939457,0.091858,0.0814196,0.091858,0.1002088,0.0960334,0.0981211,0.1085595,0.1127349,0.1127349,0.1127349,0.1189979,0.125261,0.1210856,0.1231733,0.1210856,0.125261,0.1085595,0.1189979,0.125261,0.1169102,0.1127349,0.1043841,0.1085595,0.1002088,0.1022964,0.0939457,0.1085595,0.1043841,0.0960334,0.091858,0.1043841,0.1002088,0.1002088,0.0960334,0.1064718,0.1085595,0.1064718,0.1189979,0.1461378,0.1670146,0.177453,0.2254697,0.2421712,0.2359081,0.217119,0.1983299,0.1461378,0.1106472,0.091858,0.085595,0.0897704,0.091858,0.085595,0.085595,0.0876827,0.0876827,0.091858,0.091858,0.0730689,0.1022964,0.3110647,0.7223382,1,0.8935282,0.3402923,0.0146138,0.1732777,0.177453,0.0960334,0.0897704,0.1043841,0.1002088,0.0835073,0.0793319,0.0939457,0.0876827,0.085595,0.0793319,0.091858,0.0939457,0.085595,0.0897704,0.1022964,0,0,0,0,0,0,0,0,0,0,0,0,0,0,0,0,0,0,0,0,0,0,0,0,0,0,0,0,0,0,0,0,0,0,0,0,0,0,0,0,0,0,0,0,0,0,0,0,0,0,0,0,0,0,0
1,0.6462396,0.1114206,0.0306407,0.0306407,0.0501393,0.0278552,0.0389972,0.0222841,0.0389972,0.0306407,0.0501393,0.0501393,0.0529248,0.0445682,0.0696379,0.0752089,0.0891365,0.0947075,0.1169916,0.1197772,0.1699164,0.178273,0.2033426,0.2256267,0.270195,0.2785515,0.3119777,0.2980501,0.2980501,0.2451254,0.2116992,0.1532033,0.1114206,0.0668524,0.0557103,0.0278552,0.0389972,0.0111421,0.0194986,0.0083565,0.0222841,0.0027855,0.0167131,0.0083565,0.0222841,0.0222841,0.0306407,0.0194986,0.0167131,0.0167131,0.0278552,0.0222841,0.0306407,0.005571,0.0250696,0.0250696,0.0529248,0.0529248,0.0724234,0.0807799,0.097493,0.0696379,0.0668524,0.0250696,0.0250696,0,0.0278552,0.0139276,0.0139276,0.0111421,0.0194986,0.0194986,0.0306407,0.0139276,0.0584958,0.2813371,0.6852368,0.9972145,0.5905293,0.0947075,0.0306407,0.0278552,0.0501393,0.0250696,0.0306407,0.0194986,0.0334262,0.0278552,0.0417827,0.0278552,0.0501393,0,0,0,0,0,0,0,0,0,0,0,0,0,0,0,0,0,0,0,0,0,0,0,0,0,0,0,0,0,0,0,0,0,0,0,0,0,0,0,0,0,0,0,0,0,0,0,0,0,0,0,0,0,0,0,0,0,0,0,0,0,0,0,0,0,0,0,0,0,0,0,0,0,0,0,0,0,0,0,0,0,0,0,0,0,0,0,0,0,0,0,0,0,0,0,0
0.9757282,0.8786408,0.4805825,0.2038835,0.1699029,0.1504854,0.1504854,0.1262136,0.1553398,0.1553398,0.1650485,0.184466,0.1941748,0.1747573,0.1941748,0.2038835,0.2281553,0.1941748,0.223301,0.223301,0.2524272,0.2281553,0.2524272,0.2572815,0.3009709,0.2669903,0.3009709,0.3349515,0.3398058,0.3398058,0.3786408,0.3446602,0.3446602,0.3543689,0.3640777,0.315534,0.315534,0.2864078,0.2524272,0.223301,0.2427184,0.1796117,0.1601942,0.1601942,0.1456311,0.1262136,0.1504854,0.1213592,0.1359223,0.1019417,0.1116505,0.0873786,0.1019417,0.0776699,0.0825243,0.0825243,0.092233,0.0485437,0.0728155,0.0728155,0.0631068,0.0631068,0.0970874,0.0631068,0.0679612,0.0728155,0.0873786,0.0679612,0.0825243,0.0873786,0.1165049,0.0679612,0.1359223,0.1601942,0.1699029,0.1893204,0.2281553,0.2087379,0.1747573,0.1407767,0.1359223,0.0728155,0.092233,0.0728155,0.0631068,0.038835,0.0533981,0.0097087,0,0,0.0145631,0.0194175,0.0339806,0.0679612,0.0728155,0.0970874,0.1165049,0.1019417,0.1504854,0.1116505,0.1359223,0.1601942,0.1601942,0.0776699,0.0048544,0.1165049,0.2427184,0.2912621,0.4757282,0.8592233,1,0.8203884,0.5339806,0.3300971,0.2184466,0.1990291,0.2184466,0,0,0,0,0,0,0,0,0,0,0,0,0,0,0,0,0,0,0,0,0,0,0,0,0,0,0,0,0,0,0,0,0,0,0,0,0,0,0,0,0,0,0,0,0,0,0,0,0,0,0,0,0,0,0,0,0,0,0,0,0,0,0,0,0,0,0,0,0,0,0
0.8184819,0.5610561,0.5379538,0.4950495,0.4818482,0.4752475,0.4356436,0.359736,0.2871287,0.1551155,0.0792079,0.019802,0.0066007,0,0.019802,0.0561056,0.1353135,0.2310231,0.2970297,0.349835,0.3663366,0.389439,0.4224423,0.4158416,0.4224423,0.4158416,0.4356436,0.4521452,0.4884489,0.4884489,0.4983498,0.5016502,0.5082508,0.5148515,0.5181518,0.5214521,0.5313531,0.5379538,0.5511551,0.5511551,0.5610561,0.5544555,0.5775577,0.5775577,0.5874587,0.5808581,0.5874587,0.5643564,0.5742574,0.5676568,0.5709571,0.5544555,0.5544555,0.5313531,0.5247525,0.4983498,0.4818482,0.4653465,0.4587459,0.4488449,0.4389439,0.4323432,0.4356436,0.4224423,0.4257426,0.4092409,0.4158416,0.4059406,0.4158416,0.3993399,0.4125412,0.4059406,0.4059406,0.3927393,0.3960396,0.3861386,0.3927393,0.389439,0.3927393,0.3828383,0.3960396,0.3762376,0.3828383,0.3795379,0.3927393,0.3663366,0.3861386,0.3795379,0.3795379,0.369637,0.3762376,0.3729373,0.3861386,0.3729373,0.3927393,0.3795379,0.4026403,0.4191419,0.69967,1,0.5544555,0.5577558,0.5313531,0.5148515,0.5082508,0.4785478,0.4422442,0.389439,0.2937294,0.1980198,0.1551155,0.1221122,0.1353135,0.1155116,0.1848185,0.2508251,0.310231,0.3531353,0.3762376,0.3762376,0,0,0,0,0,0,0,0,0,0,0,0,0,0,0,0,0,0,0,0,0,0,0,0,0,0,0,0,0,0,0,0,0,0,0,0,0,0,0,0,0,0,0,0,0,0,0,0,0,0,0,0,0,0,0,0,0,0,0,0,0,0,0,0,0,0,0,4
1,0.8093923,0.5828729,0.3618785,0.2596685,0.1629834,0.121547,0.0939227,0.0801105,0.0801105,0.0718232,0.1243094,0.1104972,0.1270718,0.1298342,0.1298342,0.121547,0.1243094,0.0883978,0.1077348,0.0856354,0.0745856,0.0552486,0.0745856,0.0801105,0.0994475,0.1243094,0.1353591,0.1381215,0.1850829,0.2044199,0.2182321,0.2292818,0.2182321,0.2154696,0.1906077,0.1767956,0.160221,0.1270718,0.1270718,0.1077348,0.1187845,0.1104972,0.1077348,0.1187845,0.1160221,0.1104972,0.1104972,0.1049724,0.1077348,0.1077348,0.1132597,0.0994475,0.0994475,0.0801105,0.0745856,0.0718232,0.0745856,0.0856354,0.1243094,0.1270718,0.1298342,0.1657459,0.1850829,0.2044199,0.1823204,0.1436464,0.0911602,0.038674,0.0497238,0.0303867,0.0524862,0.0469613,0.0607735,0.0552486,0.0635359,0.0745856,0.0911602,0.140884,0.4143646,0.7265193,0.8729282,0.5994475,0.4751381,0.2265193,0.0994475,0.0165746,0.0110497,0,0.0027624,0,0.0220994,0.0359116,0.0414365,0.0552486,0.0856354,0.0745856,0,0,0,0,0,0,0,0,0,0,0,0,0,0,0,0,0,0,0,0,0,0,0,0,0,0,0,0,0,0,0,0,0,0,0,0,0,0,0,0,0,0,0,0,0,0,0,0,0,0,0,0,0,0,0,0,0,0,0,0,0,0,0,0,0,0,0,0,0,0,0,0,0,0,0,0,0,0,0,0,0,0,0,0,0,0,0,0,0,0,0
1,0.9717948,0.7333333,0.3410257,0.2769231,0.3333333,0.3230769,0.3051282,0.3153846,0.3179487,0.3102564,0.2948718,0.2846154,0.2769231,0.2692308,0.2564103,0.2589744,0.2692308,0.2589744,0.2384615,0.2307692,0.2358974,0.2282051,0.2,0.1897436,0.1974359,0.1948718,0.1692308,0.1589744,0.1512821,0.1333333,0.1025641,0.0846154,0.0692308,0.0512821,0.0333333,0.0461538,0.0948718,0.1333333,0.1641026,0.1948718,0.2461538,0.2641026,0.2794872,0.2820513,0.3025641,0.3153846,0.3179487,0.3282051,0.325641,0.3230769,0.3128205,0.3076923,0.3102564,0.2948718,0.2794872,0.274359,0.2794872,0.2769231,0.2641026,0.2589744,0.2589744,0.2512821,0.2461538,0.2333333,0.225641,0.2384615,0.2435897,0.2512821,0.2641026,0.2641026,0.2487179,0.2333333,0.2358974,0.2205128,0.2051282,0.1871795,0.1897436,0.1897436,0.1717949,0.1666667,0.1692308,0.1589744,0.1538462,0.1461539,0.1512821,0.1282051,0.1205128,0.3333333,0.6692308,0.8384615,0.7871795,0.5641026,0.1282051,0.0717949,0.1230769,0.0923077,0.0769231,0.0820513,0.0564103,0.0461538,0.0358974,0.025641,0,0,0,0,0,0,0,0,0,0,0,0,0,0,0,0,0,0,0,0,0,0,0,0,0,0,0,0,0,0,0,0,0,0,0,0,0,0,0,0,0,0,0,0,0,0,0,0,0,0,0,0,0,0,0,0,0,0,0,0,0,0,0,0,0,0,0,0,0,0,0,0,0,0,0,0,0,0,0,0,0,0,0,0,0
0.5422535,0.4330986,0.2922535,0.193662,0.056338,0,0.056338,0.1214789,0.1408451,0.1707747,0.2183099,0.2552817,0.2676056,0.2693662,0.2764085,0.278169,0.2728873,0.278169,0.2816902,0.2834507,0.2799296,0.2816902,0.2887324,0.3028169,0.3133803,0.3257042,0.3521127,0.3820423,0.4102113,0.431338,0.4612676,0.4876761,0.4982394,0.4929577,0.4911972,0.4841549,0.4577465,0.4383803,0.4207746,0.403169,0.3785211,0.3609155,0.3503521,0.3485915,0.3327465,0.3221831,0.3292254,0.334507,0.3292254,0.3204225,0.3274648,0.3292254,0.3204225,0.3169014,0.3239437,0.3239437,0.318662,0.3133803,0.3151408,0.3133803,0.3151408,0.3080986,0.3133803,0.3133803,0.306338,0.3045775,0.3028169,0.3116197,0.3045775,0.3010563,0.2992958,0.3080986,0.3045775,0.3028169,0.306338,0.3133803,0.3045775,0.2957746,0.3080986,0.3080986,0.3045775,0.3028169,0.3080986,0.318662,0.3221831,0.3204225,0.3221831,0.3327465,0.3397887,0.3433098,0.3591549,0.3609155,0.3485915,0.334507,0.3274648,0.3239437,0.3080986,0.2852113,0.2992958,0.3045775,0.3028169,0.3028169,0.3151408,0.3380282,0.403169,0.5510563,0.7764084,0.9383803,1,0.6285211,0.2341549,0.2042253,0.2588028,0.2658451,0.2552817,0.2605634,0.2570423,0.25,0.2535211,0,0,0,0,0,0,0,0,0,0,0,0,0,0,0,0,0,0,0,0,0,0,0,0,0,0,0,0,0,0,0,0,0,0,0,0,0,0,0,0,0,0,0,0,0,0,0,0,0,0,0,0,0,0,0,0,0,0,0,0,0,0,0,0,0,0,0,0,2
1,0.9874687,0.802005,0.518797,0.4348371,0.3847118,0.3358396,0.3220551,0.3045113,0.2957394,0.2819549,0.2781955,0.2656642,0.2568922,0.2481203,0.2406015,0.2255639,0.2105263,0.1842105,0.1654135,0.1466165,0.122807,0.0977444,0.0776942,0.0551378,0.0401003,0.0200501,0.0125313,0,0.0050125,0.0062657,0.0225564,0.0338346,0.0588972,0.085213,0.1140351,0.1478697,0.1867168,0.216792,0.254386,0.2844611,0.3132832,0.3333333,0.3521303,0.3609022,0.3834586,0.3872181,0.3997494,0.4035088,0.414787,0.414787,0.4260652,0.4310777,0.4398496,0.4411027,0.4461153,0.443609,0.443609,0.4448622,0.4461153,0.4498747,0.452381,0.4461153,0.4486215,0.4398496,0.4486215,0.4411027,0.4536341,0.4473684,0.4536341,0.452381,0.4561403,0.4511278,0.4536341,0.4498747,0.4573935,0.4573935,0.4636591,0.4586466,0.4636591,0.4611529,0.4649123,0.4661654,0.4649123,0.4611529,0.4674186,0.4611529,0.4598998,0.4598998,0.4611529,0.4611529,0.4661654,0.4636591,0.4699248,0.4674186,0.4774436,0.4774436,0.5162907,0.7719298,0.8458647,0.7280702,0.6666667,0.5802005,0.4874687,0.3734336,0.2581454,0.1403509,0.0789474,0.0388471,0.0388471,0.0576441,0.0977444,0.179198,0.2606516,0.2932331,0.3383459,0.3859649,0.4360902,0.481203,0.5175439,0.5388471,0.5588973,0,0,0,0,0,0,0,0,0,0,0,0,0,0,0,0,0,0,0,0,0,0,0,0,0,0,0,0,0,0,0,0,0,0,0,0,0,0,0,0,0,0,0,0,0,0,0,0,0,0,0,0,0,0,0,0,0,0,0,0,0,0,0,0,0,2
1,0.7964602,0.3613569,0.0855457,0.0722714,0.1828909,0.219764,0.1887906,0.1873156,0.1976401,0.1725664,0.1681416,0.1622419,0.1755162,0.179941,0.179941,0.199115,0.219764,0.238938,0.259587,0.2758112,0.3156342,0.3421829,0.3628319,0.4041298,0.4247788,0.4483776,0.4675516,0.4852507,0.4911504,0.4941003,0.479351,0.4719764,0.4528024,0.4321534,0.4026549,0.380531,0.3702065,0.3421829,0.3067847,0.2964602,0.2817109,0.2699115,0.2654867,0.2684366,0.2728614,0.2699115,0.2831858,0.3230088,0.3480826,0.3643068,0.3584071,0.3244838,0.2831858,0.238938,0.2418879,0.2374631,0.2300885,0.2374631,0.238938,0.2359882,0.2374631,0.2227139,0.2079646,0.2772861,0.5324484,0.8702065,0.9380531,0.6238938,0.300885,0.0752212,0,0.1091445,0.1563422,0.1165192,0.1135693,0.1135693,0.1032448,0.100295,0.0840708,0,0,0,0,0,0,0,0,0,0,0,0,0,0,0,0,0,0,0,0,0,0,0,0,0,0,0,0,0,0,0,0,0,0,0,0,0,0,0,0,0,0,0,0,0,0,0,0,0,0,0,0,0,0,0,0,0,0,0,0,0,0,0,0,0,0,0,0,0,0,0,0,0,0,0,0,0,0,0,0,0,0,0,0,0,0,0,0,0,0,0,0,0,0,0,0,0,0,0,0,0,0,0,0,0,0,0,0
1,0.922353,0.5223529,0.1741176,0.0964706,0.0964706,0.0894118,0.0776471,0.0917647,0.0682353,0.0682353,0.0564706,0.0611765,0.0494118,0.0635294,0.0447059,0.0517647,0.0423529,0.0588235,0.0470588,0.0494118,0.0376471,0.0470588,0.0258824,0.0282353,0,0.0235294,0.0070588,0.0211765,0.0305882,0.0611765,0.0541176,0.0729412,0.0729412,0.0894118,0.0870588,0.0894118,0.0847059,0.0870588,0.0776471,0.08,0.0823529,0.0894118,0.0823529,0.0917647,0.0847059,0.0988235,0.0847059,0.0917647,0.0847059,0.0917647,0.0847059,0.1129412,0.1882353,0.4329412,0.6658823,0.9270588,0.9035294,0.5317647,0.2070588,0.1270588,0.12,0.0941176,0.0564706,0.0635294,0.0376471,0.0517647,0,0,0,0,0,0,0,0,0,0,0,0,0,0,0,0,0,0,0,0,0,0,0,0,0,0,0,0,0,0,0,0,0,0,0,0,0,0,0,0,0,0,0,0,0,0,0,0,0,0,0,0,0,0,0,0,0,0,0,0,0,0,0,0,0,0,0,0,0,0,0,0,0,0,0,0,0,0,0,0,0,0,0,0,0,0,0,0,0,0,0,0,0,0,0,0,0,0,0,0,0,0,0,0,0,0,0,0,0,0,0,0,0,0,0,0,0,0,0,0,0
1,0.5627118,0.5932204,0.5932204,0.5830508,0.5457627,0.5220339,0.4338983,0.2983051,0.1457627,0.0440678,0.1118644,0.1389831,0.1694915,0.2338983,0.2711864,0.2542373,0.2508475,0.2644068,0.2779661,0.2881356,0.2847458,0.2983051,0.3016949,0.3050847,0.3084746,0.3050847,0.3118644,0.3254237,0.3254237,0.3389831,0.3423729,0.3627119,0.3762712,0.4,0.4101695,0.420339,0.4338983,0.4542373,0.4338983,0.4372881,0.420339,0.4101695,0.3661017,0.3627119,0.3389831,0.3254237,0.3152542,0.3118644,0.3050847,0.3050847,0.2813559,0.2949153,0.2847458,0.2881356,0.2813559,0.2813559,0.2779661,0.2813559,0.2779661,0.2711864,0.2644068,0.2677966,0.2542373,0.2576271,0.2440678,0.2508475,0.240678,0.2372881,0.2338983,0.2271186,0.2372881,0.2305085,0.2305085,0.2305085,0.2338983,0.2305085,0.2169491,0.2271186,0.2271186,0.2237288,0.2271186,0.2305085,0.2237288,0.2237288,0.220339,0.2305085,0.220339,0.240678,0.2440678,0.2372881,0.2338983,0.2474576,0.2474576,0.2745763,0.3661017,0.9355932,0.5898305,0.5355932,0.5322034,0.5322034,0.4949152,0.4677966,0.3762712,0.2372881,0.0813559,0,0.1084746,0.1220339,0.1457627,0.2338983,0.220339,0.2033898,0.2169491,0.2305085,0.2440678,0,0,0,0,0,0,0,0,0,0,0,0,0,0,0,0,0,0,0,0,0,0,0,0,0,0,0,0,0,0,0,0,0,0,0,0,0,0,0,0,0,0,0,0,0,0,0,0,0,0,0,0,0,0,0,0,0,0,0,0,0,0,0,0,0,0,0,0,0,0,0,4
1,0.9115524,0.4494585,0,0.0523466,0.3122744,0.4223827,0.4296029,0.4296029,0.4422383,0.4512635,0.4458484,0.4476534,0.465704,0.4765343,0.4729242,0.4747292,0.4945848,0.5018051,0.5072202,0.5144404,0.534296,0.5469314,0.5541517,0.5722021,0.5830325,0.5866426,0.5830325,0.5830325,0.5758123,0.5830325,0.5794224,0.5613719,0.5523466,0.532491,0.5018051,0.4711191,0.4602888,0.4530686,0.433213,0.4277978,0.4277978,0.4350181,0.4241877,0.4259928,0.4404332,0.4458484,0.4404332,0.4422383,0.4494585,0.4494585,0.4440433,0.4404332,0.4404332,0.4386282,0.433213,0.4259928,0.4259928,0.4241877,0.4151624,0.4097473,0.4151624,0.4169675,0.4097473,0.4025271,0.4151624,0.433213,0.4386282,0.4440433,0.4638989,0.4765343,0.4584838,0.4476534,0.4494585,0.4223827,0.4097473,0.3971119,0.3898917,0.3898917,0.3790614,0.3826715,0.3880866,0.3898917,0.3916968,0.3916968,0.4061372,0.4259928,0.4855596,0.6642599,0.9043321,0.9548736,0.6245487,0.131769,0.0288809,0.2779783,0.4151624,0.4151624,0.4133574,0.4296029,0.4314079,0.4296029,0.4386282,0.4458484,0.4440433,0.4512635,0.467509,0.4747292,0,0,0,0,0,0,0,0,0,0,0,0,0,0,0,0,0,0,0,0,0,0,0,0,0,0,0,0,0,0,0,0,0,0,0,0,0,0,0,0,0,0,0,0,0,0,0,0,0,0,0,0,0,0,0,0,0,0,0,0,0,0,0,0,0,0,0,0,0,0,0,0,0,0,0,0,0,0,0,0,0
1,0.7463415,0.2487805,0.0756098,0.1219512,0.1097561,0.0731707,0.0829268,0.0731707,0.0585366,0.0512195,0.0756098,0.0780488,0.0658537,0.0609756,0.0780488,0.0780488,0.0804878,0.0707317,0.0902439,0.0902439,0.0829268,0.0804878,0.102439,0.1073171,0.1,0.104878,0.1243902,0.1268293,0.1073171,0.1,0.1317073,0.1365854,0.1414634,0.1292683,0.1414634,0.1219512,0.1170732,0.1219512,0.1317073,0.1268293,0.1243902,0.1073171,0.1195122,0.1195122,0.1146341,0.1195122,0.1292683,0.1146341,0.1243902,0.1146341,0.1341463,0.1170732,0.1268293,0.1243902,0.1243902,0.1219512,0.1390244,0.1414634,0.1560976,0.1804878,0.2,0.1951219,0.2,0.1878049,0.1512195,0.1243902,0.1097561,0.0951219,0.0707317,0.0731707,0.0829268,0.0707317,0.0439024,0.1170732,0.3390244,0.7317073,0.9463415,0.5853658,0.1268293,0.0487805,0.0731707,0.0463415,0.0219512,0.0243902,0.0121951,0.004878,0.0146341,0.0219512,0,0.0073171,0.0146341,0.0170732,0,0,0,0,0,0,0,0,0,0,0,0,0,0,0,0,0,0,0,0,0,0,0,0,0,0,0,0,0,0,0,0,0,0,0,0,0,0,0,0,0,0,0,0,0,0,0,0,0,0,0,0,0,0,0,0,0,0,0,0,0,0,0,0,0,0,0,0,0,0,0,0,0,0,0,0,0,0,0,0,0,0,0,0,0,0,0,0,0,0,0,0,0,0,0
0.9878296,0.8924949,0.6754564,0.4705882,0.2251521,0.0507099,0,0,0.0182556,0.0588235,0.1034483,0.1257606,0.1521298,0.158215,0.1622718,0.1541582,0.1561866,0.148073,0.1501014,0.1399594,0.1440162,0.1298174,0.1399594,0.1359026,0.1440162,0.1440162,0.1643002,0.1724138,0.1906694,0.2048682,0.2332657,0.2454361,0.2718053,0.2860041,0.3103448,0.31643,0.3387424,0.3448276,0.3590264,0.3590264,0.3651116,0.356998,0.3610548,0.3488844,0.3448276,0.3387424,0.3407708,0.3387424,0.3509128,0.3427992,0.3509128,0.3509128,0.3711967,0.3610548,0.3549696,0.3488844,0.3630832,0.3488844,0.3346856,0.2920893,0.2677485,0.2515213,0.2494929,0.2474645,0.2576065,0.2535497,0.2576065,0.2535497,0.2636917,0.2616633,0.2677485,0.2636917,0.2778905,0.2738337,0.2799188,0.2718053,0.2555781,0.2718053,0.4401623,0.5699797,0.7363083,0.9127789,1,0.9675456,0.7626775,0.5679513,0.3306288,0.1156187,0.0263692,0,0.0263692,0.0527383,0.1075051,0.1257606,0.1663286,0.1724138,0.1825558,0.1663286,0,0,0,0,0,0,0,0,0,0,0,0,0,0,0,0,0,0,0,0,0,0,0,0,0,0,0,0,0,0,0,0,0,0,0,0,0,0,0,0,0,0,0,0,0,0,0,0,0,0,0,0,0,0,0,0,0,0,0,0,0,0,0,0,0,0,0,0,0,0,0,0,0,0,0,0,0,0,0,0,0,0,0,0,0,0,0,0,0,0
1,0.8120482,0.4168675,0.1325301,0.2024096,0.2096386,0.2168675,0.1927711,0.2048193,0.1903614,0.2072289,0.1975904,0.2048193,0.1855422,0.2,0.1807229,0.2,0.1759036,0.2,0.1903614,0.2072289,0.1975904,0.2216868,0.2120482,0.2361446,0.2289157,0.2506024,0.2530121,0.2674699,0.2722892,0.286747,0.2819277,0.3012048,0.2891566,0.3084337,0.2795181,0.2915663,0.260241,0.2626506,0.2313253,0.2457831,0.2313253,0.2361446,0.2168675,0.2385542,0.2216868,0.2385542,0.2240964,0.2433735,0.2433735,0.2554217,0.2385542,0.260241,0.2530121,0.2939759,0.313253,0.3445783,0.3951807,0.5036145,0.5903614,0.6963856,0.7590361,0.8433735,0.8216867,0.8096386,0.7373494,0.653012,0.5156627,0.4722891,0.4240964,0.4192771,0.4771084,0.4674699,0.2,0.139759,0.1012048,0.0987952,0.0722892,0.0746988,0.0337349,0.0313253,0,0,0,0,0,0,0,0,0,0,0,0,0,0,0,0,0,0,0,0,0,0,0,0,0,0,0,0,0,0,0,0,0,0,0,0,0,0,0,0,0,0,0,0,0,0,0,0,0,0,0,0,0,0,0,0,0,0,0,0,0,0,0,0,0,0,0,0,0,0,0,0,0,0,0,0,0,0,0,0,0,0,0,0,0,0,0,0,0,0,0,0,0,0,0,0,0,0,0,0,0,0,0,0,0,0,0
1,0.952164,0.6537585,0.1685649,0.1571754,0.2346241,0.2027335,0.1936219,0.2095672,0.2004556,0.1867882,0.191344,0.2050114,0.1958998,0.1867882,0.1867882,0.1867882,0.1845102,0.1845102,0.1936219,0.1958998,0.1731207,0.1480638,0.1412301,0.1366743,0.1321184,0.1230068,0.1252847,0.1138952,0.0888383,0.0660592,0.0523918,0.0364465,0.022779,0,0,0.0250569,0.0637813,0.1116173,0.166287,0.2232346,0.2460137,0.261959,0.2824601,0.2824601,0.2779043,0.2779043,0.2915718,0.309795,0.309795,0.2961276,0.3052392,0.3120729,0.3075171,0.3052392,0.3006834,0.3120729,0.309795,0.309795,0.3120729,0.3166287,0.3075171,0.3006834,0.3006834,0.3029613,0.2938496,0.2710706,0.2733485,0.2779043,0.2733485,0.2870159,0.2938496,0.2892939,0.2801822,0.2756264,0.284738,0.2938496,0.2870159,0.2756264,0.2779043,0.2801822,0.2733485,0.2596811,0.2528474,0.2505695,0.2437358,0.2460137,0.2551253,0.2528474,0.2323462,0.2186788,0.2209567,0.2323462,0.2255125,0.2118451,0.2164009,0.2186788,0.2072893,0.2004556,0.2050114,0.2095672,0.2004556,0.1958998,0.191344,0.1685649,0.1708428,0.3530752,0.6833713,0.8724374,0.8473804,0.6970387,0.2414579,0.0774487,0.143508,0.1366743,0.1138952,0.1161731,0.1093394,0.0865604,0.0820046,0.0797267,0.0592255,0.0455581,0.0432802,0.0432802,0.0273349,0.0091116,0,0,0,0,0,0,0,0,0,0,0,0,0,0,0,0,0,0,0,0,0,0,0,0,0,0,0,0,0,0,0,0,0,0,0,0,0,0,0,0,0,0,0,0,0,0,0,0,0,0,0,0,0,0,0,0,0,0,0,0,0
0.9368088,0.9478673,0.3981043,0,0.1943128,0.3175355,0.300158,0.2875198,0.2890995,0.2875198,0.28594,0.2985782,0.2985782,0.2922591,0.2922591,0.2954186,0.2954186,0.2954186,0.2954186,0.3033175,0.3064771,0.300158,0.2985782,0.3080569,0.3080569,0.3048973,0.3064771,0.3127962,0.3175355,0.3175355,0.3191153,0.3301738,0.3317536,0.3317536,0.3380727,0.3507109,0.35703,0.3538705,0.3554502,0.3633491,0.3601896,0.35703,0.3538705,0.3554502,0.342812,0.3270142,0.3064771,0.2969984,0.2875198,0.2733018,0.271722,0.2685624,0.2638231,0.2590837,0.257504,0.2638231,0.2606635,0.2559242,0.2590837,0.2669826,0.2654029,0.2654029,0.2669826,0.271722,0.2796209,0.2701422,0.2701422,0.2780411,0.2748815,0.2701422,0.2669826,0.2764613,0.2748815,0.2669826,0.2669826,0.2780411,0.28594,0.28594,0.2938389,0.3048973,0.3191153,0.314376,0.3064771,0.3159558,0.314376,0.2938389,0.2733018,0.2733018,0.2733018,0.2638231,0.2622433,0.271722,0.2669826,0.2638231,0.2638231,0.2701422,0.2733018,0.271722,0.2733018,0.2875198,0.2954186,0.3048973,0.3791469,0.6003159,0.9304897,1,0.5181674,0.0268562,0.1690363,0.3380727,0.3317536,0.3096367,0.3112164,0.314376,0.314376,0.3159558,0.3238547,0.3159558,0.3206951,0.3270142,0.328594,0.3270142,0.3254344,0.3317536,0.3317536,0.3270142,0.328594,0,0,0,0,0,0,0,0,0,0,0,0,0,0,0,0,0,0,0,0,0,0,0,0,0,0,0,0,0,0,0,0,0,0,0,0,0,0,0,0,0,0,0,0,0,0,0,0,0,0,0,0,0,0,0,0,0,0,0,0,0
